t,rep_0,rep_1,rep_2,rep_3,rep_4,rep_5,rep_6,rep_7,rep_8,rep_9,rep_10,rep_11,rep_12,rep_13,rep_14,rep_15,rep_16,rep_17,rep_18,rep_19,rep_20,rep_21,rep_22,rep_23,rep_24,rep_25,rep_26,rep_27,rep_28,rep_29,rep_30,rep_31,rep_32,rep_33,rep_34,rep_35,rep_36,rep_37,rep_38,rep_39,rep_40,rep_41,rep_42,rep_43,rep_44,rep_45,rep_46,rep_47,rep_48,rep_49,rep_50,rep_51,rep_52,rep_53,rep_54,rep_55,rep_56,rep_57,rep_58,rep_59,rep_60,rep_61,rep_62,rep_63,rep_64,rep_65,rep_66,rep_67,rep_68,rep_69,rep_70,rep_71,rep_72,rep_73,rep_74,rep_75,rep_76,rep_77,rep_78,rep_79,rep_80,rep_81,rep_82,rep_83,rep_84,rep_85,rep_86,rep_87,rep_88,rep_89,rep_90,rep_91,rep_92,rep_93,rep_94,rep_95,rep_96,rep_97,rep_98,rep_99,rep_100,rep_101,rep_102,rep_103,rep_104,rep_105,rep_106,rep_107,rep_108,rep_109,rep_110,rep_111,rep_112,rep_113,rep_114,rep_115,rep_116,rep_117,rep_118,rep_119,rep_120,rep_121,rep_122,rep_123,rep_124,rep_125,rep_126,rep_127,rep_128,rep_129,rep_130,rep_131,rep_132,rep_133,rep_134,rep_135,rep_136,rep_137,rep_138,rep_139,rep_140,rep_141,rep_142,rep_143,rep_144,rep_145,rep_146,rep_147,rep_148,rep_149,rep_150,rep_151,rep_152,rep_153,rep_154,rep_155,rep_156,rep_157,rep_158,rep_159,rep_160,rep_161,rep_162,rep_163,rep_164,rep_165,rep_166,rep_167,rep_168,rep_169,rep_170,rep_171,rep_172,rep_173,rep_174,rep_175,rep_176,rep_177,rep_178,rep_179,rep_180,rep_181,rep_182,rep_183,rep_184,rep_185,rep_186,rep_187,rep_188,rep_189,rep_190,rep_191,rep_192,rep_193,rep_194,rep_195,rep_196,rep_197,rep_198,rep_199,rep_200,rep_201,rep_202,rep_203,rep_204,rep_205,rep_206,rep_207,rep_208,rep_209,rep_210,rep_211,rep_212,rep_213,rep_214,rep_215,rep_216,rep_217,rep_218,rep_219,rep_220,rep_221,rep_222,rep_223,rep_224,rep_225,rep_226,rep_227,rep_228,rep_229,rep_230,rep_231,rep_232,rep_233,rep_234,rep_235,rep_236,rep_237,rep_238,rep_239,rep_240,rep_241,rep_242,rep_243,rep_244,rep_245,rep_246,rep_247,rep_248,rep_249,rep_250,rep_251,rep_252,rep_253,rep_254,rep_255,rep_256,rep_257,rep_258,rep_259,rep_260,rep_261,rep_262,rep_263,rep_264,rep_265,rep_266,rep_267,rep_268,rep_269,rep_270,rep_271,rep_272,rep_273,rep_274,rep_275,rep_276,rep_277,rep_278,rep_279,rep_280,rep_281,rep_282,rep_283,rep_284,rep_285,rep_286,rep_287,rep_288,rep_289,rep_290,rep_291,rep_292,rep_293,rep_294,rep_295,rep_296,rep_297,rep_298,rep_299,rep_300,rep_301,rep_302,rep_303,rep_304,rep_305,rep_306,rep_307,rep_308,rep_309,rep_310,rep_311,rep_312,rep_313,rep_314,rep_315,rep_316,rep_317,rep_318,rep_319,rep_320,rep_321,rep_322,rep_323,rep_324,rep_325,rep_326,rep_327,rep_328,rep_329,rep_330,rep_331,rep_332,rep_333,rep_334,rep_335,rep_336,rep_337,rep_338,rep_339,rep_340,rep_341,rep_342,rep_343,rep_344,rep_345,rep_346,rep_347,rep_348,rep_349,rep_350,rep_351,rep_352,rep_353,rep_354,rep_355,rep_356,rep_357,rep_358,rep_359,rep_360,rep_361,rep_362,rep_363,rep_364,rep_365,rep_366,rep_367,rep_368,rep_369,rep_370,rep_371,rep_372,rep_373,rep_374,rep_375,rep_376,rep_377,rep_378,rep_379,rep_380,rep_381,rep_382,rep_383,rep_384,rep_385,rep_386,rep_387,rep_388,rep_389,rep_390,rep_391,rep_392,rep_393,rep_394,rep_395,rep_396,rep_397,rep_398,rep_399,rep_400,rep_401,rep_402,rep_403,rep_404,rep_405,rep_406,rep_407,rep_408,rep_409,rep_410,rep_411,rep_412,rep_413,rep_414,rep_415,rep_416,rep_417,rep_418,rep_419,rep_420,rep_421,rep_422,rep_423,rep_424,rep_425,rep_426,rep_427,rep_428,rep_429,rep_430,rep_431,rep_432,rep_433,rep_434,rep_435,rep_436,rep_437,rep_438,rep_439,rep_440,rep_441,rep_442,rep_443,rep_444,rep_445,rep_446,rep_447,rep_448,rep_449,rep_450,rep_451,rep_452,rep_453,rep_454,rep_455,rep_456,rep_457,rep_458,rep_459,rep_460,rep_461,rep_462,rep_463,rep_464,rep_465,rep_466,rep_467,rep_468,rep_469,rep_470,rep_471,rep_472,rep_473,rep_474,rep_475,rep_476,rep_477,rep_478,rep_479,rep_480,rep_481,rep_482,rep_483,rep_484,rep_485,rep_486,rep_487,rep_488,rep_489,rep_490,rep_491,rep_492,rep_493,rep_494,rep_495,rep_496,rep_497,rep_498,rep_499
0,0.3004980706575202,0.2857722526368057,0.3029318220605794,0.30585164957420463,0.2933547264022924,0.2960458760596949,0.2984378133336597,0.28724689660786024,0.31147977568984775,0.2975339935629837,0.31194204057684966,0.32488597855834983,0.32920594228141725,0.28483855426291876,0.3046060631491575,0.29633329104327705,0.304464760703666,0.29889030428413843,0.29849499891376535,0.3111818556405885,0.3056931419310977,0.31377086326480025,0.29589509993018176,0.2942529726579818,0.30191988981469264,0.30050757484930596,0.29354624262643847,0.29032005275461475,0.3106975116249465,0.314035086140701,0.3073321520201982,0.30322641193318034,0.2984829182950217,0.300824998193171,0.3159841199598805,0.2957121123061636,0.30065291818596424,0.29703268008449296,0.3089063773398047,0.29727527128861286,0.2894753529949446,0.29338869873515805,0.30671994742456443,0.28651150478847226,0.29445696341804295,0.32180450861261933,0.3080333966107633,0.28551146673764893,0.28164101150046156,0.3230172175519764,0.310545340010892,0.3220296317021586,0.28990797490174347,0.29835997065322506,0.29226369667983115,0.2978599687923941,0.3079578354193625,0.30971566970179965,0.30377211923542025,0.30108078018270085,0.2903535625242529,0.30700213473246685,0.29686466647977816,0.2984080592875081,0.31920367331119026,0.3092360850716269,0.2870576564620397,0.30323193215094013,0.3237417903748748,0.2893471312128822,0.2891642374071244,0.2954228687401417,0.30366811643939046,0.3044694198125769,0.29482549777738015,0.2970799881123674,0.29817744847829386,0.2915779963947937,0.3060013177504638,0.3067487626472937,0.2948608036224671,0.3035463634288555,0.2973811255764177,0.292849946570165,0.2982805860329195,0.34659970730606565,0.2970458130318322,0.3164070533284237,0.3130741833416461,0.3385464369202832,0.2993463232271155,0.2964399963755972,0.2998410486156498,0.2960234074560533,0.2945477186160073,0.28784853119906684,0.2863157003410225,0.3077675288132605,0.2886698991653103,0.29063627064935976,0.311877751804566,0.29285494438689225,0.322870228486207,0.29766040965709833,0.3053233700081247,0.29863566694868837,0.3218406515957532,0.3128909743966105,0.30878612730895094,0.2978740748636868,0.28905449226394764,0.3251656530119498,0.300520388484692,0.3093772429143985,0.3032554164475775,0.3250375300784308,0.3141301247713608,0.29880380541280427,0.3252081494884037,0.3060080015127861,0.2872022410087151,0.30847597360611745,0.31009295262287717,0.2987882241539087,0.32677241607999064,0.31864409302763713,0.294172377933402,0.3010258302343235,0.3055659947600685,0.30061245596641883,0.2851113177072035,0.30879553370693896,0.29972165430252273,0.313267139404336,0.3066713493505865,0.30734864587131017,0.32190789121833013,0.32638100192161945,0.30642782843963634,0.3146523166630831,0.34084699454303763,0.296387640631142,0.2907517938580768,0.2970406274445586,0.3027690366053422,0.28878009784898884,0.29349122258861515,0.3025201897116605,0.3635037901332401,0.32499016238893813,0.2879287262787059,0.314709301669271,0.2950260298085585,0.28918074767764645,0.29063969954009844,0.2968986978976673,0.3328353660377206,0.2907686059703264,0.29581142221579154,0.3097793741440271,0.2877250687802321,0.3227593959977868,0.30095852203225115,0.3220419608429067,0.31338841706588594,0.2967863614566493,0.34646006678694585,0.3011133845426743,0.2947585727042991,0.29389178061563626,0.30252190517298766,0.300831819084377,0.3198766015549952,0.323444410741723,0.30001853411344903,0.2924243885687541,0.30307118675870814,0.2937443919341247,0.30768677085496804,0.29247029608810526,0.2987394673639012,0.2964530481758859,0.3182452191346045,0.3056766118587167,0.2986561053477018,0.30648500724113326,0.32929838431191777,0.3289364197737864,0.31359453091291994,0.30968911506487296,0.3152736315979318,0.30201763809479387,0.3073923125955287,0.2995651115218421,0.2932176491337724,0.3153896797143284,0.2957456680308949,0.2936215951013182,0.2931020332158443,0.2986829483800284,0.3084470688476288,0.32835917883980825,0.30340678365501195,0.28973612798043785,0.30176150991360595,0.3173741301394092,0.303317310747206,0.31173006345075643,0.29283944244863613,0.3044853598157065,0.30863589380218176,0.33700106445927924,0.3345566269742055,0.3065862365359813,0.29263513163945615,0.28907160463804044,0.33969223742344046,0.29637026148256623,0.2993094726590911,0.29516665072530734,0.28770527006125274,0.3378424991740447,0.3099737586371184,0.31117554601248243,0.3054103356105813,0.29884436804214315,0.30232992032734896,0.30122845807491555,0.3080620645355986,0.2844740413573871,0.2892285816141436,0.300391622677454,0.3138017468151252,0.3027440782123127,0.2914193926890544,0.3039823866187892,0.3329333421592568,0.3046681639815561,0.3110751288161865,0.29333097716060663,0.3040272762046773,0.3097033715199986,0.3127776639372859,0.30985434146516966,0.2922042754246409,0.2986604100828857,0.30383064231745294,0.29732997293826224,0.2988108789478228,0.29219571354810114,0.3545511888375289,0.3114196400149855,0.32544665730258177,0.31966573188409575,0.2945127573519972,0.28973393173187467,0.2894228275556758,0.3228936417215804,0.3173819470522528,0.31982159038520763,0.33594678126175065,0.2931444171362504,0.3058574640810744,0.31352141848834864,0.30698598481747935,0.29584858134764835,0.30167080278806147,0.30168525291349985,0.2973269987816388,0.292879121452167,0.2946985323803595,0.30492501777160513,0.3132125509904288,0.2920094701458543,0.30013375945918436,0.3004136076471829,0.3048254590716314,0.30818776776352524,0.2964752832119867,0.3131901800715927,0.3049759323042044,0.3094776073465108,0.30283183268922037,0.2972580086924158,0.3182636043413428,0.3016300543890905,0.2868510232315124,0.29816835073974735,0.3316681643954785,0.29875734686858835,0.3218045451646385,0.33335459753430835,0.3039291340108307,0.3030691207082049,0.2942520526320003,0.30159906756476806,0.31833829621428217,0.30931891356601543,0.3076810085365521,0.3220125025526107,0.29528186837364395,0.3084796426039087,0.2984666997863715,0.3184310678851291,0.3089383018147087,0.3011906761801145,0.314868477458761,0.30038179183964153,0.30517581765379653,0.3076592869897578,0.293600681656261,0.3036291593143701,0.29660594857502665,0.29279623112100256,0.295137692326245,0.29587019717645735,0.2947254914719394,0.2981317407979542,0.31744648483160115,0.3076704760276072,0.3152431335246547,0.31983204498534945,0.3031492903308649,0.3028792568597044,0.3488924016866696,0.30675161114237326,0.30061024394736957,0.3248074500025889,0.29965461988557096,0.3020334182198081,0.3003322011340344,0.29274119483194583,0.30775092524117686,0.2906669759991409,0.30261900711445133,0.29824341373255925,0.29852998641075673,0.29276646321160843,0.3238689320318312,0.30814185114280296,0.30773710247980207,0.2924538909825868,0.30592133245272873,0.3621316506628494,0.2956035054441154,0.307610592252919,0.28301779090422297,0.2907192899872022,0.3389146223232137,0.29705283340400046,0.3085903503250327,0.3025654444030318,0.2968704520126024,0.3072838397472844,0.2956797382509445,0.2945495896490914,0.32788363594575565,0.313310848372698,0.3202398212945007,0.3025458011955717,0.30456569525861543,0.3046286499140157,0.2943268445719649,0.3029406617968381,0.3230061998528843,0.3133318130241383,0.2878320593845112,0.2925974271010577,0.2922609842873568,0.30869599901346917,0.30376577154755136,0.30410392694438715,0.30309382461112244,0.30218588276836267,0.300169273232502,0.3057003433380826,0.3018485400680724,0.305924920695045,0.3686563943708737,0.2994154984606111,0.3267764105152852,0.31030708185106864,0.29019664298802905,0.2897339551344334,0.3128135186484838,0.30395978241308974,0.32328887894881453,0.32285365541781624,0.3054321395255441,0.3017475542208859,0.2993711875438445,0.3052856334557874,0.3031148086783046,0.3086750765344978,0.2980078450379243,0.328564617119712,0.29088688526068374,0.3198298243192182,0.2970087899595456,0.29770987579335206,0.29695637655634644,0.29479465260521553,0.2950351125599466,0.29170348367306626,0.3080145705826956,0.2953425852772617,0.32581772628819977,0.29681332942280214,0.3027833625464235,0.2958851774349744,0.2976442128005051,0.28665798163490275,0.2949990497720419,0.29147974982551755,0.30863919343103,0.3102706524336378,0.3152228966790326,0.2961976606535922,0.30357488189627924,0.29366048444395,0.31990501663640397,0.2894778064110485,0.3145841454631071,0.3194970629397618,0.2913614909566549,0.31951761646094146,0.31384775410371757,0.3087664608455425,0.3161076820323557,0.29444538721023644,0.30776677337218883,0.31012154694282773,0.30097099543860173,0.296666332517611,0.2929394964818834,0.29822447179074046,0.29081256984286125,0.28687706992766426,0.32020739850922647,0.31110444134705456,0.3243590935368193,0.2957282311896846,0.2948503861999915,0.3059838372365152,0.30549166496616975,0.3018155977790058,0.3143360805014893,0.2885789238561457,0.29031448750293165,0.2986228454524341,0.3274790645935875,0.30505408747099116,0.3090888692876289,0.2991981967417606,0.29969764359084866,0.3011402975128292,0.3135928992468587,0.2873498154115631,0.30077337967446505,0.3058748348310294,0.29405877755959503,0.2944691578637965,0.3032382474174707,0.2957561730400175,0.3008747589682169,0.2974491189777596,0.2950801041365453,0.3119654943791146,0.30190168673454626,0.3081766118993108,0.3376849745358657,0.3182709949235719,0.2980389472502035,0.29586543088937034,0.2893866096727105,0.31168032876174434,0.3136127657045547,0.2997870165016541,0.30192895955098115,0.32452891010096147,0.29877283494394574,0.31700815796310017,0.3275655911044149,0.2890430440309594,0.29528878159956384,0.30854851067411493,0.29690425706903184,0.29373941182256613,0.3109742014918381,0.28813115211147733,0.3360633435954301,0.30157905511678046,0.29771590041962165,0.31273365970361944,0.30189409465002137,0.3339232756027888,0.2990813749641811,0.3139282786517979,0.2858451686681482,0.3151403472722888
1,0.2990384614950928,0.28174601669011407,0.29855763977898225,0.303565477553366,0.3090965219245193,0.29493644313225087,0.2944412804589537,0.30139389425879914,0.3129330685948374,0.2995977730156333,0.3041227163310761,0.29595070623644226,0.32312324661146063,0.2907194935961679,0.32291048293887936,0.2848160009608945,0.3087392266826387,0.3059232160477709,0.31764880463581296,0.3090627451984474,0.30851839530416175,0.3061489820882157,0.2825960081240608,0.2915273319106078,0.3022973973773658,0.2969147388232197,0.28396229096615216,0.29017045755233867,0.30871124306935516,0.30676452538521726,0.29427180915513157,0.28969688659425236,0.3186175119240383,0.2869844825594185,0.30003593891920566,0.2865557026440836,0.2952284701388034,0.3222511302417471,0.2927465868675644,0.3110164193474997,0.3034621622120167,0.29892196329904197,0.30697837198992634,0.3084736338723873,0.303328599102073,0.3054045269539139,0.30657401833938736,0.29678091400649376,0.28572391983204776,0.29672461901040537,0.29932871472759726,0.3085708919943227,0.29629831244568694,0.36158729263337336,0.2924472377395268,0.2870414091663955,0.3116055442906366,0.30379016235380923,0.2989818636331181,0.31667876880291906,0.298434143102032,0.29703758665129726,0.3167929462830608,0.2981924762938965,0.29551723039375954,0.30360078415510117,0.29555232548623955,0.2891836050489853,0.31626343763961884,0.2876492640826257,0.2995271831254375,0.32803810554014584,0.29333363420233616,0.30185505218782227,0.29065288226041713,0.29398586267253546,0.30339666336031784,0.35053114390396284,0.30872440370751253,0.30920966217451357,0.30642608666618176,0.303228948876092,0.2878856561195074,0.29776583855379574,0.30707198057847007,0.3281171266263391,0.29246950867578536,0.30250340851505253,0.29559472397809733,0.28680097952589556,0.30240961458536314,0.2987186067906959,0.3008819834492377,0.2981333855419556,0.3098705843354916,0.2910132032472813,0.3214657709291598,0.29616316730890735,0.31666516480286183,0.3072180867341186,0.2979992063533512,0.3085043463780642,0.316424402669592,0.3091973065445702,0.3091446734152637,0.2989814332274456,0.2913284166528201,0.3018920612951635,0.29743803139633573,0.3278029868693121,0.29841920466380334,0.2851510501529028,0.33829475455084956,0.3146717316987139,0.29593275678514075,0.2939738811128981,0.28983317290922145,0.33024952502573235,0.30253125287899785,0.3263443205220094,0.3193409921342416,0.3039492005843064,0.29388176919341485,0.30783769470329586,0.3014971053074694,0.2947912375606521,0.32424064237538724,0.3155041014034624,0.3451216897979158,0.2978054996727658,0.2991253288059978,0.29019099045972646,0.33626688191207094,0.32788916212780517,0.2870419078922529,0.2963216251136238,0.3131621604996397,0.29698154905830554,0.2985557961422131,0.28707533484689285,0.30058205136857974,0.3034094137675828,0.2980076135867142,0.29776524630442525,0.30035530111919073,0.2905012829242521,0.3184782705831752,0.2937519087315471,0.29751585398945013,0.3209439713689982,0.29366857382494704,0.32163861425178897,0.29889186454096695,0.289539312284645,0.3013634513624197,0.3010376847260469,0.31392557205755184,0.28744510115643424,0.3058848151445616,0.3002402438216442,0.30341694609732217,0.3147796212768838,0.30976344739936096,0.34132392397877603,0.3401966294647357,0.2907845264205548,0.29391598263446794,0.2934186198415397,0.30157164267929554,0.35182043142004205,0.3325659858686155,0.29970239580585495,0.36282811400190396,0.3030000784123512,0.3073484039722295,0.2953525846837697,0.3137147823315092,0.3127436686882604,0.32804187565799353,0.29578771076702154,0.30031948364635846,0.2970836180750351,0.3002832621014569,0.30514590305097955,0.310133188485305,0.3052009400980035,0.3184962117030623,0.2983924235155243,0.29827764147640307,0.321801673633472,0.29816108786613527,0.29962125454651256,0.3007631432469643,0.29369851454869034,0.30684088747976246,0.3547012117752767,0.3050381556739892,0.3030407915750934,0.29727941427387855,0.3363257113287498,0.29456115946801686,0.3043023809889255,0.29942049413553223,0.31698559539467863,0.294097061585888,0.2956912413120947,0.29612479438312256,0.2945239962020313,0.3329085928374223,0.32700848338476507,0.3035235723391978,0.31468816247547193,0.30449491839980525,0.3048986162265993,0.2935514680116792,0.3071279931220638,0.31379178362538723,0.2974883907579211,0.300980201793687,0.29062599015618634,0.2869005527473416,0.2906527817440744,0.3259308779633332,0.30466806915798633,0.32123110406069666,0.31369347681281134,0.33542594813233034,0.30469174622155465,0.29041960241002124,0.29576735384350517,0.3073602446364108,0.3191711491976028,0.31310066884580234,0.31872302975907624,0.309173807779851,0.2901873583742741,0.2836080303371308,0.2930401092482134,0.3320765218624973,0.2957180434629427,0.2957428314795169,0.3218542552249045,0.2896852611369668,0.3033876539623792,0.30628003656970826,0.2997320878285097,0.2930215273603552,0.293245076917238,0.30156890240509415,0.2990046145471757,0.29994413372888645,0.295323536824369,0.31672225701479473,0.30936002787931444,0.30607064531789174,0.2865926683877126,0.2930414817553225,0.314218736136182,0.292251292566362,0.3025929457186328,0.33571658397943593,0.29477500707029825,0.3053997000368981,0.30477746920920445,0.31208358545244297,0.3070733533615578,0.30163482286072424,0.29570779668774205,0.30373380277906015,0.2959241231997157,0.28613365194897056,0.30999494497651514,0.3025607495111953,0.290483207043261,0.2991522043123876,0.29795641987707944,0.3194377732598701,0.37819814863598655,0.29135160783836794,0.29670128400302476,0.28653320705130847,0.29200854580723046,0.2994130447607911,0.2947157128937466,0.29319101905144707,0.30459153220396706,0.3164829996890134,0.28879341404538195,0.297003496107778,0.28944671847226916,0.3052081995658118,0.30983669732924407,0.3134468521346466,0.309973959286559,0.29478566280973595,0.2976107769098343,0.29773597479290115,0.33879422000115467,0.3299520313502076,0.29892003187758887,0.30632598672579914,0.29566718361625965,0.30544036649517536,0.2988837228545765,0.3076857945267995,0.3308097446794855,0.3134461049942122,0.29328408674799245,0.30310557261536225,0.32260548457344707,0.28202748351848195,0.3037975129911917,0.3079245507976949,0.30239434433762546,0.2874121539025677,0.29574243655459775,0.2912559224553501,0.3065735302138162,0.3059999865663475,0.2989650116077872,0.3048953468202538,0.29229453309866504,0.2905110061518614,0.30042243024138854,0.2994548268707164,0.30217870542125347,0.300686629373932,0.30120474008040005,0.33379549578921736,0.30112076338065863,0.29585655026508484,0.29091288929206593,0.29208119782466474,0.3079364075611656,0.292887339736367,0.2919454571106407,0.29418900719458013,0.29318705861365685,0.2994631476267884,0.30901575256951397,0.31124031433026195,0.2997544770491377,0.31203083379475427,0.29705857519858825,0.29624426408785703,0.3053371714105495,0.2855905905220596,0.3082962417938047,0.2915647291382256,0.3079542148755388,0.3051084981537714,0.2920078512164279,0.3109683804456197,0.30159799937952936,0.31125992333275093,0.29422241407573824,0.32144208594653223,0.301236369639696,0.3185389503355973,0.2972467209154691,0.2929730405151211,0.30172932494665183,0.28768630470259493,0.30433895566037183,0.2971363066942082,0.2934168696019691,0.29316905130793464,0.30134656530744297,0.316699649252401,0.2983298985695651,0.2975911211506632,0.30860823862496173,0.3132516242713835,0.29894782036048795,0.30920312985786996,0.2891752757060536,0.3074487116526968,0.3051543135845577,0.3044514544385545,0.30559841527770126,0.28986850780678797,0.3310458946933602,0.3127209969503114,0.3057814482836513,0.30309302861516524,0.2943900385369346,0.294082906203749,0.3130250878301264,0.2923432337301797,0.30007765813095455,0.29050855815002763,0.2937225546743408,0.32039607666859765,0.32983114973538147,0.29684375317733747,0.31835231474040065,0.31325317227960886,0.29854635235142546,0.30194004091291865,0.29486244304445286,0.28951881618044245,0.2896647553336872,0.2924622029955687,0.2864071690949364,0.30506744983295414,0.29895178471409584,0.29324958265428314,0.3011471181337894,0.2965771930690702,0.33204767252604456,0.2922107493589267,0.30677286639512935,0.29701384715320917,0.2889364591590256,0.2947889887893834,0.29218762346909594,0.2914598387637885,0.28921219789311403,0.2949888767919814,0.31402346246626284,0.28683708323720025,0.2854300529791134,0.30155004417262954,0.2984462065943293,0.3167729779783146,0.3232408525691391,0.2878902893836776,0.31083575403300745,0.31531871878616663,0.28911566698707636,0.32238508370408475,0.2880918101289728,0.3159735778834796,0.3006724936198548,0.29061263497184076,0.31265876914156776,0.33707052125513715,0.2939981119270638,0.325813987880154,0.3028367676139768,0.334763905384766,0.30832625570298816,0.3010414321142734,0.3104920955470122,0.296487166322902,0.29637567852297814,0.29870974036841214,0.2967745684130059,0.2927217874817,0.2903192866831137,0.29970014353121105,0.3137023414051265,0.30021590123348146,0.29372549306792806,0.28763868333316595,0.29526344652325365,0.30404736044553327,0.289199397360618,0.30380903051028707,0.32185144284120054,0.3052627911002669,0.29240112936105395,0.2993207326617312,0.292807523253945,0.3242304131186545,0.2997054220819164,0.2984881962968259,0.2916434587661368,0.3048057585367346,0.29431535175492196,0.3077381504787711,0.2995581984427559,0.2914700321494133,0.29007203697787276,0.3123720609114983,0.3131317781680372,0.3427760015055777,0.3330985481801815,0.29508448410913,0.30229462113402217,0.30247826024605884,0.2916009900875118,0.32476449322832796,0.30326366028405627,0.28964916612947944,0.3095126567838475,0.30837236939267354,0.2974968326402338,0.29773277220030125,0.31354848368187943,0.3317081524658639,0.31479115410529457,0.30032435252529854,0.29482101078435236,0.29834357527456434,0.30834761368092145,0.3328169531191853,0.29374949613896517,0.30188570308306484,0.31497570554266013
2,0.2974813610995658,0.28497745467967805,0.29217505695028423,0.3006632756213898,0.3109550297668238,0.2882601542768447,0.29327928867608827,0.31711882397044927,0.3016825896339666,0.2958608651253056,0.34605475465269453,0.3043254195512394,0.3148765188932939,0.29970478665015604,0.3045590952904223,0.2900822910632522,0.29839036770759786,0.30586486503259686,0.2955684930680293,0.32167409929502117,0.2973612933870642,0.3186164807339408,0.32259667983722856,0.2933772707699191,0.30835893928098945,0.29980894554643694,0.29518059027869076,0.2911571479999099,0.31250860549970033,0.31006409305470134,0.3029957828528965,0.29047707265257117,0.2958592559561858,0.2846832129644127,0.3013213517318776,0.3026033120964981,0.29197005108640545,0.2982423931963326,0.3076153903449772,0.2935496063674134,0.31148759354343836,0.3058479155499922,0.29646983369409474,0.29371570137283276,0.32389521619738887,0.33801099030189263,0.297323716514601,0.28966439224650437,0.28566944433002084,0.29735568890995434,0.3018791824506609,0.3001577533619636,0.29851751088925343,0.29821392356211873,0.29499333883485496,0.29634882994392187,0.3022783426244132,0.3010020318327897,0.3038277845497537,0.3088176335755584,0.292525056376702,0.3022327191638728,0.30494729194363984,0.3092340315922314,0.28611910668421225,0.30467626701563794,0.2939011737531386,0.30733544177741134,0.31420045245197625,0.28928299627925613,0.2877186251735668,0.3233072825070058,0.318966548197535,0.291828767697202,0.3182034212558397,0.3018495067032415,0.3103919404880673,0.2927830134300811,0.3007887490127417,0.31228101629243615,0.3252145338471093,0.30812486401871475,0.30846911974814495,0.3145449355115487,0.2949314534546967,0.3066706226614832,0.2958407415574913,0.3045385691079138,0.308958822626369,0.29560988794401794,0.2983048797060256,0.29777644737095943,0.3001539401270614,0.3117390591821513,0.29785494040539473,0.3011829625218505,0.2927806409339017,0.30416639273668833,0.30568804389051285,0.3061641564263915,0.2997296032547335,0.28694988836802404,0.2977595334839833,0.31073094210403795,0.30246735993980406,0.29079716461361377,0.3300212271516496,0.29646602782942405,0.2930008784155299,0.30391119977783576,0.30528391795514365,0.30197925282248167,0.32275140664585045,0.303335531426215,0.2907415810237689,0.311293825506715,0.3063019059261882,0.31133456189755115,0.29936597188285285,0.3005078783880065,0.2939866793560374,0.2937882499840597,0.3051776529825833,0.329237728659142,0.2942066680329945,0.31658414715880884,0.31026269109818344,0.3163015473927187,0.3284876061532671,0.3054779626450315,0.30124878851474773,0.298892700804637,0.3087051899419643,0.3175418349958889,0.29638631142155597,0.29333962811014097,0.31100449514266915,0.30830480515384495,0.32538478824840716,0.3005642951897246,0.31266319086022454,0.300420802152808,0.3104116515532908,0.31060282521259763,0.29606129197376413,0.29779500121558355,0.3063304601769251,0.2978013279656116,0.33353982997987947,0.31383742094087824,0.28889472927215554,0.29357267903405215,0.3040210539630222,0.2976312844564021,0.29773058521191675,0.3019939889298299,0.29458179966627096,0.29784206411334874,0.3054367120752023,0.29630734104798784,0.29422466596452085,0.2963066142526339,0.2884417389304085,0.31142946082504774,0.307403019976311,0.2923944985648691,0.30702777332418735,0.2903570316505626,0.3188100957131089,0.3301637565014546,0.32186556379565023,0.2957649640917259,0.3226523976744065,0.2944572891623295,0.29981273286621635,0.29487049545021254,0.2926682732421419,0.3186494235391246,0.3055190767934398,0.2879429567444797,0.28722724357132995,0.31637275342966464,0.29220550899295483,0.308922456609675,0.29625852561448934,0.3141177343324541,0.3117508133051885,0.3024729902883905,0.3105985886444356,0.3063932043699322,0.2965249416594449,0.29626652124364905,0.3130705769780056,0.3013901222759695,0.28749326239274386,0.3406473882137744,0.316754293046454,0.29508467119886256,0.3066773492721585,0.3077959996122265,0.2952947283349975,0.29447370387287075,0.2903224561695898,0.3450596857952567,0.2920601379081151,0.29736189102232136,0.3737213822194711,0.2940640838942413,0.29144329187496065,0.3042486609146781,0.3035412737737895,0.30242036610052814,0.30800455104503016,0.2887711606605259,0.318336943410343,0.3142363297215623,0.29419604301636515,0.30690010302160753,0.33498440088554887,0.29193815317447136,0.30560915699136143,0.3261420936676631,0.30405563542602815,0.30090321457949726,0.30591552333669686,0.29709418021069384,0.29357070218345316,0.29687666342172336,0.29645689488022686,0.2941215179141184,0.3052522565521936,0.31321297336144127,0.2922553347597171,0.334695412768754,0.3274064758060876,0.30898770145766286,0.3086982010457195,0.30423797482284,0.3084937988796982,0.2885093032173649,0.2885414703046953,0.35301242663454596,0.30734024729924025,0.304152283079934,0.29239870521791655,0.3165344049537637,0.29718103978321103,0.30357652500529886,0.2969372891366303,0.30312505134842155,0.3086063663566555,0.3012625655769246,0.29625222550773644,0.2938516152526821,0.2857861390154655,0.2989648687953904,0.29036390671559503,0.32272686827314484,0.30664603540237656,0.30768057160209633,0.3450878101928737,0.29529782557825257,0.30683075229246526,0.3055557438773659,0.29772126633508433,0.3026898597100143,0.31224001740981916,0.31252904156818356,0.2950421922323216,0.3159939218508218,0.2936162846267646,0.32383084452622607,0.2991758719955941,0.2981382797972143,0.28907500459939695,0.30032273078433225,0.3317533706207821,0.32851777414929667,0.2987052855793369,0.29730630760358373,0.2877112514000046,0.2957216001999866,0.2885161290146002,0.3116845790875421,0.302584417999333,0.3021489298342261,0.29276611710585965,0.30769244068327456,0.29826976504331454,0.30356762527636266,0.3020002586563354,0.3155414252049237,0.29664415618794826,0.29031755025410744,0.30769627728199744,0.2941422272583532,0.2946774027402277,0.29015531079547335,0.3060693284802102,0.3036729835674493,0.30877361318941715,0.2938462457923421,0.3174688810206556,0.30038725241747183,0.30944126762557306,0.33817325875250176,0.32930288656090406,0.2924906414642107,0.3061664630280278,0.3081546737275616,0.29773232344865275,0.3099101096302136,0.2881880692262981,0.29795105262756794,0.32193937648994686,0.28923318187438873,0.2989628506424561,0.295461918846953,0.30926814869355485,0.3224246587871257,0.29221389830494154,0.29844894431120234,0.299444870131197,0.29775258652347086,0.2906220741164227,0.3145029746692099,0.31029678552796164,0.299170953340182,0.3116257399635315,0.29599415515899385,0.3122055743253521,0.288337233653307,0.3019399335647485,0.29707400162101844,0.2999169494015363,0.3078052726887849,0.2993347924491016,0.29722141357736465,0.3185273755992676,0.31832121044365747,0.39395599544804016,0.3074821740684522,0.2981595165854195,0.3205020942107593,0.28792125795571066,0.299243211651984,0.2998902840435244,0.3217756145297252,0.294531365814863,0.3010544548847401,0.29481133322070274,0.30880885999384483,0.31026082281749295,0.30428749243239533,0.2892367972245532,0.3077247645705544,0.3024523784032599,0.29830996287072964,0.3241669567392957,0.3002158220979364,0.30298927147817467,0.31739631260495493,0.2904750100371202,0.3023856941334061,0.30644473681647083,0.3269132276194611,0.29482100186333227,0.292639892933385,0.2905022275977149,0.30552777243469403,0.29239961425096217,0.298583641917168,0.3290104641201354,0.2909413369992342,0.3003103186034131,0.2988862062657379,0.30618751025364915,0.30537557199755194,0.3047967529448914,0.3120603877512215,0.30475081030762513,0.33905486964846,0.32911824563582937,0.30758218471118354,0.2913177160847947,0.28850211896642514,0.32644614859786975,0.3248218189624568,0.31300241389145833,0.30340299032622237,0.29521292695899104,0.29360568810972376,0.30337814817201225,0.3095429615060973,0.29769761363662733,0.31157434895559655,0.2879198666119813,0.3212558794976084,0.31863683473658516,0.29605602561852906,0.29668283229452214,0.2979291872312137,0.31637209734588445,0.2936918396475547,0.30088840899630714,0.30213002633820246,0.3048292281786137,0.3032406236584135,0.30113524278827464,0.3264382434028602,0.3209665731414388,0.28767912445294797,0.28721444190724954,0.3103058507080415,0.3009413220647478,0.2890177398182675,0.3014586107541157,0.2985022521147719,0.29612516048309295,0.29607703002241537,0.28344467213617863,0.3002085926919907,0.3003444054028624,0.29895157560015806,0.3293847304518245,0.29905456654333024,0.30724618309327034,0.30385500783815217,0.28979940685026717,0.3216819995582289,0.3328270099495361,0.2927791968301462,0.33908982783127445,0.3139570223888807,0.3066726762406982,0.29794100940897716,0.28867457639135496,0.2886445531071596,0.3340033616064997,0.2950363145055456,0.3086778119582144,0.2931830872715727,0.29776205456990285,0.29184714929794203,0.3022089068600206,0.3134708823718919,0.31401748162136456,0.29373292188081956,0.3053482565003371,0.3068879013882454,0.33542981864232296,0.30616823060651377,0.32117668365196866,0.3055537172395812,0.2913246184520246,0.2999380997658001,0.32772520312862397,0.28786925549471193,0.3057435638491982,0.3079001821629431,0.30611903277929303,0.3064074649124656,0.31581142375903826,0.30111414750557713,0.31975301931719685,0.3036511070188734,0.29273056121352464,0.29776864507590683,0.3199006002641001,0.32521729571657865,0.30088629408283973,0.3044525744235406,0.2862031763380253,0.2954050899736079,0.3066003933904061,0.3278535304364704,0.3141033494231657,0.3239193137733717,0.3210171983747311,0.3009701262777689,0.28294991159215577,0.30507210059677997,0.320770948054348,0.29461394272707475,0.28254791823269076,0.34948672478416504,0.30383416654450995,0.2955098035564722,0.30770872583755987,0.2969920776987598,0.32094986031752876,0.3091200874914917,0.2998715440973428,0.3023086387509863,0.3351257672383792,0.3430586586218846,0.3394066923734186,0.3084516243331693,0.29838625275200725,0.28728379418280364
3,0.3082429050425563,0.2983650117413017,0.2961964620634104,0.3034437343405552,0.3116892080755485,0.29180312645108714,0.28378070958350976,0.30053556595117614,0.3012848757969472,0.3007820022970364,0.29490368140210627,0.30887235929534873,0.31162201693572544,0.29070761918722454,0.3388830935138171,0.29242325567473954,0.3017780989443768,0.3164468227939443,0.30892153642985715,0.3236444913019877,0.3221438956445016,0.2971352936023205,0.3152763714594893,0.3051427741101672,0.3160027768253941,0.3012355712440339,0.29771244758144555,0.30037879211851115,0.2935339605288644,0.30422599312529597,0.2924208022511754,0.2974042723812898,0.30544148678960525,0.2977826922839818,0.3005095292264269,0.3065048632342021,0.29303406229467477,0.3099199707381358,0.30211321622388965,0.29983252133177785,0.28569345744155644,0.3005788692767247,0.2926303066745293,0.3034676642066499,0.30270641884221383,0.3079756355342754,0.294646071338768,0.2931891403526009,0.29345227743813035,0.3044141666437715,0.30141169735248496,0.3015094315642356,0.29695311737440855,0.32138547460015165,0.288923590462785,0.30821361016678794,0.2982087968671872,0.2865770107288926,0.29355769936413567,0.3006519475666963,0.30245510075982796,0.30631318797623647,0.2977034016028327,0.30460649393787065,0.29575300461640186,0.3007236552883859,0.2927086708555785,0.2969722977977677,0.335073175521995,0.2895612424361308,0.2904896246867007,0.29186319295603674,0.28671809707087786,0.3149442295347342,0.29737192990400224,0.29350623508018325,0.29249310652124483,0.29231646252440624,0.30966320949634973,0.29659946550351834,0.313555250074078,0.31403588691016077,0.3002630034270437,0.303044385722559,0.29991236211620176,0.33738865059622347,0.3179770468165715,0.32656357634527367,0.30581136550081084,0.30832999941267697,0.2929007987079672,0.29345054686157035,0.29363562708799884,0.299034398452903,0.3133660007573902,0.2962221382000813,0.321542451202179,0.2965206818866488,0.2911831915694367,0.3256571036374512,0.3603440247926618,0.29985131225829453,0.3052655555956517,0.29686958155719456,0.3184105951682285,0.28487771767654857,0.3005908175030435,0.2867188744129394,0.30184510104611306,0.31991306665034186,0.3017961530668781,0.3028289377434566,0.4026664253541837,0.33768127888083393,0.2922770324412335,0.32730737927076675,0.3070134255644411,0.3433590718684161,0.30154561066326274,0.3129834298617427,0.2937939172565257,0.31009142608485035,0.321382197245825,0.3082067378281012,0.3011755184357902,0.3014964628711116,0.2961305371401629,0.35364759549904096,0.3166223940728549,0.31743755380644584,0.31692471770476166,0.2928085929693953,0.3031949781173306,0.30425017235384766,0.2884550590362433,0.30114033827465464,0.32027113436426535,0.30635955732070547,0.3085972328557431,0.2962644220374856,0.3009677303377153,0.3209695391116144,0.2893095695278172,0.29957182879189476,0.2978917409122868,0.2982924139724315,0.3129396035875687,0.29441819332863334,0.30064697228368986,0.3202057789181806,0.29732973072628266,0.29311270368745845,0.28906531686511155,0.3155486066359451,0.3112228107190729,0.3060311770369394,0.29616152303017496,0.29876956689758327,0.30189326733666944,0.30459235631592774,0.31985706090594324,0.2987746041575996,0.3402249684023228,0.32003200852446706,0.3132312068053503,0.31813138040044253,0.331706645082211,0.28606474836375706,0.2914340218255697,0.2985080581788647,0.32394996662514053,0.283225693203068,0.295081479567142,0.3232132170782943,0.3153854662584389,0.30556076844170826,0.30272254409388943,0.3265115477768271,0.3087984593209424,0.30413927607885316,0.2982312204861321,0.2958003335257528,0.28614749817934826,0.29171171195757467,0.30189390897562507,0.29757977110825984,0.3001330088597648,0.2914046273474403,0.31214844765147276,0.31553870578156534,0.3045989124349602,0.30062032433430874,0.295452675054282,0.3228973163410675,0.29193232360406307,0.30413302863323943,0.289832668441105,0.3085759560464201,0.3105666938740571,0.31383858239381085,0.30677813076646165,0.3195462569442668,0.30570789648494223,0.3043003764214532,0.3095006161500211,0.29745627478310327,0.3115194030422425,0.3189998301463234,0.3007777037552383,0.30745815624634654,0.31256399869307433,0.30069975175124564,0.30273036648239443,0.29381548051696826,0.292968491416847,0.2873875085844754,0.30829501592630715,0.29762472793868466,0.31030410419029886,0.3064539232728371,0.3002481385807373,0.33346791322522745,0.28758184112856366,0.2900738375888372,0.2982080650187747,0.3025179580887364,0.29855734037685383,0.303624056929369,0.29697101842211315,0.29674271312401734,0.2984772969532182,0.305205311669113,0.3105090064869233,0.30201826430101786,0.33221051668573237,0.3185161451495819,0.2943114800525588,0.2997805980908068,0.3163590994735694,0.315294943755006,0.2880085712399592,0.291123290687741,0.31054670979888566,0.2917534222635732,0.3045542005424834,0.2980324042267929,0.2916026833529702,0.30410530290830107,0.2936223352313111,0.3096106398105767,0.3610252961257421,0.2915010422136683,0.29174998275630815,0.2929091111005865,0.29594493060125177,0.3210222988423136,0.29249116004663467,0.2983710301568572,0.3024195230136969,0.3040684375279083,0.3248295025940603,0.302157098864517,0.28641223039864266,0.29927247327691586,0.3089436952563876,0.3012154598995028,0.3170989170643919,0.31622665393893706,0.2994891672992787,0.28610499070227374,0.29743275600764163,0.3086895404831718,0.29032608938765936,0.2948301864920574,0.295469785010129,0.29001811190984333,0.31938747480731583,0.3072996790297964,0.2938091320955583,0.31236860173901937,0.3077508080431187,0.2937716048905914,0.2867358546289396,0.3121946438414199,0.31444394623643335,0.3146900468980878,0.3007228413033094,0.29062418920413063,0.29215577534537673,0.32079635436815046,0.30565717516603397,0.29482799320641073,0.2979073558414845,0.3010140925281609,0.30247769646869604,0.29945199243425336,0.29376887827339987,0.2926907241037348,0.3147731347564929,0.29448070177490526,0.3142871402739099,0.2969177383063437,0.3110921818387253,0.31286676606734526,0.30661419494209324,0.33371606078757615,0.30602635513338894,0.2996961418369499,0.30526859705459897,0.32489448659734627,0.30487704820695544,0.30785467070237715,0.30733925672796286,0.31217968234380944,0.32917210774036576,0.29086109243255437,0.3439438999644867,0.3022780843926302,0.29492122479221516,0.2905452861213543,0.2978487346793671,0.311147002766218,0.30248226582649174,0.3094318037953163,0.3071900997942443,0.30036903648209134,0.2919968141000135,0.30462321745911064,0.29967137690553625,0.3116352774254264,0.30446557478511926,0.2949786789565006,0.29329768875106416,0.2953433284643284,0.30045151269132864,0.306696936860194,0.32745938510711203,0.2894406698155487,0.2913832496907566,0.2875122405138134,0.3139803746110279,0.2953748030664152,0.3030055845405992,0.3030747657701962,0.29099474696514466,0.307297008547621,0.3050430361477095,0.31091617918741776,0.2889628882307661,0.3144629285088807,0.3142262879028882,0.30438801744545946,0.3085026095835469,0.3117020707325852,0.28644825573605825,0.29665362322215855,0.30556816879909093,0.29292785109883057,0.29958264885218283,0.29817690707396194,0.29317728221696865,0.3157075490634771,0.2890943216047766,0.2905919095360644,0.28943032746624275,0.30119851825565486,0.30290404586205144,0.3190019976055606,0.2963616825319687,0.30089408553006364,0.2989308623011738,0.2887865023158134,0.3167056249620326,0.308279213046715,0.29004426600160693,0.29539730931529684,0.29429533143902853,0.2966172122148588,0.330033729109274,0.29876329443314614,0.2973476436454523,0.3012629913123009,0.33262332125132277,0.30812630155462617,0.2907140618560342,0.31725801916729224,0.2985104220454364,0.3829295482706242,0.3152698061525615,0.3113157395322071,0.302134263273232,0.29732395607166473,0.2967045580098129,0.3132762050113044,0.3018357891231004,0.2996353933265191,0.2914458860961415,0.30587384198623135,0.2907895021961173,0.302709306425456,0.29226987583136055,0.2994604644348723,0.29512060748140156,0.2993010989147928,0.30860879599279656,0.31621522742496644,0.3243023250327766,0.2911351880899808,0.3213134632357163,0.33085987921358706,0.29325721159595136,0.28852262314134347,0.3079604029174089,0.30425037416151113,0.2969285204586157,0.29514858058342164,0.2931233254724877,0.29366883803305827,0.2968045774453776,0.2908507992545172,0.3308404985508886,0.3027167436498431,0.3256462370318727,0.3178024511471983,0.296740853619268,0.30692698069085844,0.30700930303047985,0.305377221213935,0.3171222784029306,0.30116928961992956,0.3105350238035734,0.32000110620455147,0.29540604933907255,0.31138177406259765,0.30161337036695957,0.2925718187609264,0.2986504307248833,0.2870529868116572,0.28876055505198805,0.3025045951862109,0.32748829837228827,0.3156042345520459,0.28962359795690285,0.3038242157889913,0.29878382999867437,0.28928491429798464,0.3039372363423958,0.3018712251694663,0.29623340324220715,0.3030253766872791,0.30689549672827043,0.319816598657994,0.3151506331544828,0.2967468570389818,0.29615764439837566,0.29145569253830284,0.29492466028365594,0.290078019759343,0.303485116568217,0.3754043287710995,0.32129169447334616,0.3049519221739133,0.30002796756512967,0.3124211241085146,0.30959239561294566,0.3001701944137741,0.31203959409540627,0.30798080837399405,0.3056143301210038,0.2937027611009927,0.29954617461400673,0.2959320698214044,0.306133410391689,0.3270845820448885,0.3129997664953106,0.2879156265012052,0.3098248596057281,0.3069252469159453,0.3034659321779661,0.3044804097682553,0.3183595668699554,0.2936193984164345,0.34125639421144915,0.29860167919993896,0.28887501239707924,0.3677200778025961,0.30262479404205866,0.2932155626033084,0.29604777827387074,0.3009695465627644,0.319685032256672,0.30914596890254165,0.30166578650127907,0.3041169473352938,0.297357216917863,0.29778311212873326,0.3049709585298249,0.30049097314532547,0.3506039005078681,0.2967774989696795
4,0.2999046954055206,0.2939253781622037,0.3194860090737765,0.3082915853793816,0.3090787370770213,0.3305170397772093,0.29861461750179985,0.29357730932031323,0.29890183665012887,0.29762954739405545,0.32329378765244665,0.32002548470707914,0.34410564779498254,0.28846654658395743,0.3076824334730991,0.3045578970859503,0.3186107629830225,0.288560078515619,0.29909923055229204,0.3398370422443145,0.3025620353045076,0.29755494633031215,0.29866195848983484,0.3027416724086558,0.3075439059642009,0.347050509185868,0.2934757481084986,0.2902027322917735,0.29398188980338313,0.2972817662074579,0.31326916509016317,0.2964345052413303,0.29224006523921336,0.29402612596169886,0.2973925668907028,0.2952389065696727,0.29540384111662715,0.3124738674879895,0.30909559887423044,0.30998432346866267,0.28869140107304814,0.31031177411361743,0.3049823523678665,0.2947756926043689,0.3119229271029614,0.29762782477732025,0.3002293920518791,0.3076511358290695,0.28394223074196717,0.29680215206872934,0.29752136163484505,0.3016544892672957,0.296177881180362,0.33228525269929776,0.293566820939229,0.2889659359996684,0.30434594210066745,0.28597753651760727,0.29363875418846586,0.30465000884461313,0.302120746178549,0.29562397197543827,0.30048534390917625,0.2951685710939366,0.29584133257680645,0.33899333034701923,0.2841099309242843,0.2989123846455281,0.29001112649394384,0.28885980807368883,0.29932174387787913,0.3294170967919064,0.2887754054208956,0.2995121199505007,0.29007875620333784,0.30363060325617275,0.3042488086987569,0.29134802599323845,0.3074826718153913,0.304566414530901,0.31637076966483957,0.298111603717343,0.307905951536354,0.28868540803897075,0.31093241989381565,0.33854895176205096,0.2963630421052088,0.29709527861768886,0.286764310769384,0.30508139972169696,0.3134019111616179,0.3200554501399251,0.3028321226294578,0.2961616324233096,0.3370479585408605,0.29214333889734534,0.3061933685453849,0.30107360435442704,0.29173659247352746,0.3296260184346159,0.29404133549344397,0.3036249650826491,0.2962557161980185,0.3048153577874245,0.3122572296407033,0.29378918937350224,0.3012923646927936,0.29429832720692434,0.33176733547185827,0.29612094073869866,0.33724260631335345,0.2943261109335217,0.3772175516466848,0.3171636829994171,0.302995309984949,0.2983520248253819,0.29103354778853674,0.3305746457500187,0.3177610149492886,0.3041532580981802,0.29432892683569134,0.31335879609675277,0.2989595832338684,0.3001132496160638,0.28799333666808263,0.29687805710706355,0.29472736271166994,0.35024732397580455,0.3194701059134244,0.30044000675948923,0.2978472643202072,0.2891361708960546,0.3007181382867625,0.3165520211048515,0.30400190849752456,0.28555295514837853,0.35882658213987245,0.31557472186966606,0.29518037352540427,0.28967868370276656,0.3551166285526571,0.3027676941675592,0.3304237248692617,0.291620184030065,0.2892396541902999,0.2921325839757325,0.300931210160437,0.29311645111426765,0.28872003003440655,0.32511522107740054,0.30057467624401896,0.3321104149766757,0.29516114060667553,0.2870187176162911,0.2916135934887731,0.289362857547149,0.3286898060230995,0.30437889861867334,0.2883211711166818,0.3087465373142059,0.3137586918614431,0.28923337176468944,0.29209420441456946,0.3080266210733155,0.2962830914315552,0.29670108133509254,0.3024101665845749,0.3012688108911673,0.28808548417064866,0.3350788626491824,0.2998363977054043,0.29768670813013304,0.33779713817854945,0.3160476053149518,0.3375986448615823,0.298116414416174,0.3213713982263939,0.3097579589835913,0.3123608606894759,0.30786679113040516,0.29287990890728055,0.3376031287728803,0.29052827862884356,0.29617020747348316,0.30375355111782354,0.29442750625912306,0.30581253394894936,0.3074314004410067,0.3023357961415482,0.2881642218016816,0.30359783241420424,0.2935028528815173,0.30503901687026236,0.31720947537103295,0.28656548823298755,0.3316352675585527,0.3106666935782763,0.29113661931547086,0.29825939643295935,0.3394943449859695,0.29893675713590595,0.32098962858619656,0.30613188376570294,0.3070998987738185,0.3399186481164014,0.3087367904944747,0.31410257200446134,0.2918987692239066,0.30243300042804905,0.31562736940004643,0.32351630877807624,0.31448957066489164,0.31301799392599766,0.29564869970408647,0.2981272069376605,0.28971243340462255,0.3135721365995022,0.34232271523714847,0.29508793856085375,0.2908960873916175,0.2963139312933154,0.3207771684853393,0.298032394482538,0.2926413426162843,0.2980578243440404,0.32335088187554123,0.3075911688226713,0.2943295530859863,0.29950911428906385,0.28662188020369894,0.3089896618200271,0.3124710342647059,0.28372065765172694,0.3376745175498147,0.2918677437280501,0.314103549241233,0.3186414351849392,0.31317790105129617,0.3134185140941056,0.29294649967822595,0.3167908253455238,0.30314305758184046,0.2968872331141822,0.295177171594564,0.3092489151270492,0.2864765120094532,0.29553357061539665,0.30339896148613277,0.31087311778460885,0.3005436421461458,0.31142616346582025,0.30299698800200126,0.30774973303442604,0.3018120344887961,0.29947651957683724,0.32150439443248746,0.29750006508311283,0.29810419801438826,0.3118340176695915,0.2961939590985584,0.32554296469097843,0.30315867407270736,0.2846411064730146,0.29421531311359084,0.3077721238645431,0.2948653319394252,0.29594170347525556,0.29401782934302934,0.31104563189027146,0.29972941584012824,0.2878150836397655,0.32600536374748057,0.2943088836309694,0.2953488577562552,0.29531779225000776,0.29343969003255366,0.3163433137875956,0.3076641151048083,0.2947413838113289,0.3140270281294873,0.3036752016381013,0.28988250880463307,0.3193576101900312,0.3066988064287547,0.3019880955898354,0.30834197764667015,0.30278082950432694,0.2977866962111996,0.2969316399532559,0.29437660521344144,0.30540828954127075,0.29083368725547726,0.3205429414579586,0.29102912630332906,0.3021312131894903,0.30753187282496486,0.31102913620399514,0.2930855662473998,0.3186640953049996,0.2971441874727147,0.2960133576842251,0.3041744217378913,0.3205772061109193,0.31019753295007707,0.30033714040840415,0.29668607062816427,0.311444281142984,0.30012502629669763,0.3253882854958937,0.3223902662927457,0.29096025327148095,0.31083855207977856,0.3015043922843569,0.3268646433505974,0.2951678920973865,0.2907221506552705,0.2942164741819368,0.28884303630326086,0.30076988530020354,0.292288454175078,0.289964849013984,0.31173362908598834,0.30738688537434244,0.31576044798408576,0.31129656443388143,0.29669955907191775,0.32059305946423666,0.2942182978032314,0.306560341009141,0.3186751229563114,0.31439706172949183,0.30022434623338456,0.2995203512099667,0.2953699361281419,0.2990651318827574,0.2978144619695859,0.3169188779218309,0.2992210505083376,0.32055324980918914,0.3146882754898203,0.2984187379813593,0.29685826402387333,0.3129231715723534,0.29396128239103464,0.30310614789903834,0.29347487493783353,0.2876219963980854,0.3113777410938,0.2968778869721148,0.3377700157450623,0.3364973126353624,0.32217818858296476,0.30481028683562145,0.30010212483293996,0.3137494741911087,0.3115034739706194,0.3017353204381828,0.28662413630458317,0.30035007805829755,0.37990990137659386,0.3002689750255451,0.3054131134578987,0.2870545417150243,0.3038487514640248,0.2950421830355096,0.30013651562717186,0.2972717189059496,0.2970151621123273,0.2974618917191929,0.296160241476069,0.30649909229346173,0.2964837316052212,0.3041551659304022,0.3144812889048741,0.304266030981475,0.29794807771916404,0.3229734624810856,0.3045084299211982,0.3165861469302895,0.29568919014811323,0.29675572857081056,0.3288816528671424,0.3516916180987547,0.28804685388363344,0.29057024180583546,0.28774771588900716,0.3190674614065111,0.3312750846176687,0.28928340914119993,0.28737548620691233,0.3029373692421037,0.29369411837945425,0.31839032764095,0.2956501271362519,0.30224386134159237,0.3350224227891777,0.2883484916183493,0.3008588011669485,0.30142687269711105,0.2988513799682857,0.29899283240449426,0.2968706662649764,0.312818622782237,0.330264198342418,0.31277642789265486,0.31454980648506436,0.3251995006755763,0.30953542472517986,0.3221921112337166,0.35404956916361385,0.3244752990803098,0.282791638924233,0.31616970899163177,0.30079242825743774,0.29654896993180624,0.30027132389438016,0.29346684986023497,0.3066683591816804,0.29555391769563866,0.29363694380013555,0.29178864065138976,0.31256106179547954,0.28916775146776336,0.3015408120099922,0.31846164593043214,0.30012228012775233,0.30907466842446113,0.29653179319105066,0.29066702426446317,0.3276216895380519,0.31517161555062856,0.3068788301734159,0.30200394584941387,0.3447347204918361,0.30111862213393537,0.29747342471648924,0.29175062753273806,0.28517325470734795,0.29642888433059617,0.3161507071755137,0.3105038961520551,0.3003558858443528,0.3014250411172963,0.2995460594488642,0.3109857610364176,0.3041389422265543,0.3062266283925511,0.30031771972608795,0.29706910990244373,0.2941207430415608,0.2913703719380508,0.3337910437205541,0.28713592534412063,0.3064716585126341,0.2946791108043564,0.312301694817179,0.3061886242813688,0.304249380608352,0.31876328363904344,0.31171402640110707,0.3095168232892294,0.3351711007216885,0.311988300249382,0.31220314769580604,0.307128115679022,0.30018595251502167,0.31843835556107575,0.30930652746089804,0.3061943227716176,0.31935344337114346,0.29232662443828394,0.2944681445426343,0.29783431404761507,0.3081620471734686,0.3029188200371227,0.2958276344269872,0.29741565520739427,0.30024347716046174,0.3079638368096732,0.3396187232723707,0.28445158634115664,0.3060678182083937,0.3246383376378348,0.29452896756738506,0.28659895554904746,0.33531351907745977,0.29923757114881705,0.29291138069709355,0.29783826965804583,0.301984472410883,0.31822629526245916,0.2960990434141607,0.30360682018227725,0.3519814806072884,0.3024969182252117,0.29172900236211596,0.29863121512166235,0.32259445376808393,0.30669708276175645,0.30973081346170506
5,0.2988753269888593,0.29550390169396173,0.29703717709860417,0.30263581899489483,0.2991345380436094,0.3038408635057014,0.2950279818148826,0.28601364624539605,0.32613201545044956,0.3034399449713502,0.2961599326662143,0.29440037629524407,0.3063018201963582,0.2951128818341491,0.29958973018187707,0.2979453601186451,0.2912706926823207,0.3030804932866017,0.3042881585339969,0.3129532405847903,0.31203926551043726,0.2975139672491065,0.2872901749631012,0.3070333448542945,0.286347135343296,0.3019469486909804,0.3280905350618463,0.295797385424956,0.2956184203781612,0.30126186669799904,0.32953038234526655,0.30684954381770185,0.29875741904933834,0.3019590107089556,0.31466066066074,0.32276337512355047,0.30117397046973704,0.2931222755653605,0.29723519480192423,0.31139047478765397,0.3028936277555649,0.30806944535639497,0.2893019830765852,0.29122485444364715,0.33765871226566746,0.3043566346253569,0.2945741840832941,0.30283842128162275,0.2997819331412953,0.3324528241065948,0.30582169705667167,0.28769724257702933,0.2988228993815981,0.3166064530358557,0.3103975140349044,0.2928814012746307,0.2920246061683275,0.2930025210076152,0.331979791457924,0.3164743690895425,0.2934580227889121,0.2873644543135666,0.2908213060953918,0.2955854893289838,0.2943991556088299,0.33435790754042394,0.29381166706410256,0.30093619867745497,0.30190497426818064,0.3023628848674021,0.3053982876505158,0.28611338163362027,0.30070201220516124,0.3056349218189451,0.289726019930478,0.30581162655813887,0.31461339156836415,0.29368797711246974,0.3263864589187485,0.30866044124274505,0.30446373451205366,0.30713785333584903,0.3065489448107279,0.29574168623712993,0.33071595604726134,0.28777329037620053,0.2865751907226633,0.29360642207473775,0.2888565475445426,0.289329168597868,0.30188238174782106,0.30581579809707143,0.308734326871149,0.2858430828211935,0.3158951395992343,0.29577816340681473,0.3007800223733045,0.3078081354935053,0.2966051936914269,0.30769789547013926,0.31748963545949255,0.3034361644702034,0.3006157627349477,0.2960631351373878,0.30634498904464513,0.28666607911706976,0.3164372398388854,0.302648226143619,0.30005074386584873,0.3222287472537261,0.30100735516340416,0.2847852542070584,0.3589581596451143,0.3401296561351676,0.2960654268876304,0.30466572110506573,0.3024984026768012,0.32087689242867456,0.300887429214054,0.3044120906155515,0.30387408377841607,0.31087573104921556,0.3187198020624299,0.28823588200267203,0.29840332614208187,0.3026111254372085,0.3241439104622433,0.3089516528381996,0.32040956839765283,0.30576178033758755,0.3065077256482793,0.2896827688200201,0.3093260822634715,0.3089229525470542,0.30783187661738826,0.28553126658197053,0.3026492984549674,0.3124827168024621,0.29302522188105784,0.2947694435637157,0.3144521393599784,0.3186139568881128,0.28760975999303307,0.2974515898033066,0.2852008772572111,0.29387559695541143,0.29902506443269605,0.2945143711615809,0.321875345886636,0.3098510759413239,0.2908003552725023,0.3026904429745902,0.2936717425095956,0.2954941650424562,0.3078200703260161,0.2868668158169446,0.29805144163506886,0.3017229076830288,0.29450205205754765,0.3020883637387503,0.2941046615832622,0.2916773982957873,0.30757756423676896,0.3070109219344389,0.31260721548617315,0.30159130570036086,0.3078041641042507,0.33814913956799586,0.29242742560853296,0.2991987005727778,0.3469276419930781,0.2899447725064491,0.3120329786859037,0.31275893937642935,0.35399315710519963,0.3037252911481674,0.2949229623886206,0.331628671161516,0.309393971824773,0.29924527765087416,0.2855482881158907,0.2867429887842968,0.29663934379590173,0.29524964416324256,0.32827403518647263,0.28539763374911553,0.300545359076443,0.2944116317308341,0.3155180216683738,0.3124095983266031,0.30454764065621936,0.30171036174877663,0.2991865463614618,0.30436027978761393,0.2897577090950538,0.31497836374007515,0.30175800846730283,0.2942738516118656,0.2952169485284454,0.3005364673071085,0.29383134754858303,0.31223452684645564,0.2895415878470887,0.30488475049300884,0.3017702901996694,0.31152079826432416,0.30843721962060877,0.3005449144963979,0.3428558399178303,0.29120930155978997,0.33034333977122204,0.3021336440783167,0.32606380852923356,0.30960830306469783,0.2925764310271527,0.2947423719037511,0.29605248098923226,0.30561864754636325,0.29348053430394727,0.31386310280059904,0.29478516190616044,0.3267002365220187,0.3015600576027966,0.3052215623927149,0.28854536109214884,0.29326374163102736,0.30449133030094977,0.3028943359611529,0.29345235492321864,0.28730370904124947,0.32338914076560554,0.33574697005171955,0.3025819944455551,0.30204473610404203,0.29734003465925296,0.2938346516035239,0.3027031556604514,0.30572945381823424,0.29832388721175096,0.2928053502067804,0.29423258805127034,0.313080587694916,0.30283787326100364,0.2890710636813218,0.3075012088479426,0.2990960652031033,0.3095543799302244,0.30995506231409287,0.31964124208805045,0.3010038459024059,0.37980012581863687,0.319131809443549,0.3274457071381563,0.3145535042118411,0.29152336627797915,0.32564305473297867,0.28684027215468727,0.3104070708847268,0.30869426623313423,0.32687053083076184,0.3352856740557549,0.29565400544229564,0.29726186445577485,0.29667560662912973,0.3538935665451006,0.3065160625509449,0.2971146942679599,0.2937252421028647,0.3111689452917249,0.2904543045628162,0.30872689810770493,0.29952336683421266,0.3066613083148166,0.2925768977009529,0.31722423052969506,0.3006948682643841,0.29669562440098496,0.2980063705526844,0.3263527706053719,0.29995821225627994,0.31962444833928455,0.2903377401973087,0.30054696798502306,0.2893890133004353,0.3208554512291387,0.2956725973527394,0.3063015130049775,0.3022837846826765,0.3006146344801078,0.30771235996792057,0.3238398826072131,0.34103875149012736,0.3248943346084817,0.33301003780672256,0.32047126720504715,0.31937934590845324,0.30706768591954675,0.3180217208935403,0.2872234002327887,0.3108164919820649,0.3124991531631332,0.31024963400357863,0.30788978375991466,0.3118414708430144,0.2923058921536097,0.3167605777674006,0.30910198169377956,0.2920385001983219,0.3333690193158686,0.33919962243500945,0.28929899662649583,0.29529848352706795,0.31002570469535284,0.33821376220200877,0.31471488816481596,0.2966472761673118,0.28995155449148197,0.30496611665485374,0.29687667597575046,0.30498601833139977,0.2994449886774395,0.28517075185009294,0.31152141409619033,0.3021441686761825,0.3115569150786337,0.2940089580828034,0.29759039626552375,0.30735781455171685,0.3066351265035284,0.3113994036410284,0.30194892128124834,0.29010461495370454,0.31269400915643447,0.2979595756896787,0.28840091220011493,0.2987196837119722,0.29830273354678327,0.3183664093834088,0.2983883912593194,0.2922837623033946,0.3639608853847286,0.285839664388594,0.3264316381679519,0.3148979148738511,0.30326485408890985,0.29536864210407876,0.29530255072915773,0.3005588689202873,0.2972345765809207,0.3455340371573864,0.291365794732387,0.2936583671412308,0.3082959146175399,0.2970764035291042,0.30418742719372205,0.3122946876076841,0.2896656339944787,0.2837187347856821,0.29916375881435814,0.3339648923193175,0.2884945047698223,0.3052352099172241,0.28526526948383657,0.30934462479200886,0.2944417443473287,0.3045460554188023,0.2981343837846489,0.30476311931424255,0.30082583924338435,0.2918457812330646,0.29615710249248306,0.2963325861490139,0.32881712696371,0.3067338041880042,0.2955581758594795,0.3066805113198098,0.300406521618339,0.3022077354266221,0.3165680206230945,0.2973106809962905,0.3020650935950861,0.3082835502845909,0.34455978894058725,0.29032640746452265,0.28876861117916774,0.2871166708569088,0.2921326272347784,0.3187430652530655,0.31385585348807077,0.30488819049001015,0.30786186370520136,0.2985187277424227,0.3147625041219457,0.2935983812239268,0.3022356932579177,0.3225746657964374,0.29270990686139686,0.32154653454725135,0.29851245297337625,0.2901049663101052,0.2941206491077877,0.3140433567880755,0.30576875316979923,0.28389468326625217,0.3117217511465529,0.314084735167686,0.3535377507384056,0.3010258750141392,0.3040042201895899,0.3059761582733464,0.30582788732367133,0.29457557669701423,0.2985949746889353,0.2946151585168549,0.305161761740668,0.3084069317666569,0.2962545596314131,0.2943179804528245,0.28458825528377674,0.29558300073117477,0.30570983613037306,0.30253991247087086,0.30212698418012257,0.319284945759583,0.30463066389423227,0.298899583981972,0.29742059662217024,0.29674495097912523,0.2982563622517419,0.3265193889409115,0.31103523489115986,0.30265579038018176,0.3249221426319756,0.32742468416847126,0.29645953278327536,0.2998227561509513,0.293622550791668,0.2913588688450525,0.3276167182657725,0.31615359269240156,0.3264444610099085,0.31215275602416503,0.30222199175293063,0.31257963904009756,0.3021214089226273,0.29382557491726696,0.30011025706126004,0.30674864530511997,0.2960341206082692,0.29404838797663163,0.3388806262215918,0.2957263187203791,0.30824505151416914,0.31089799618087305,0.29164125754357484,0.2985532520123399,0.29264195864935305,0.2947071670981676,0.3071454542352503,0.294435099581667,0.3069518003457409,0.29411465369014367,0.2999790697277766,0.2979058877765043,0.29527552850608585,0.3048394407966554,0.3179937619214749,0.29719181933491984,0.3118094776124143,0.33517384181227844,0.3051947042791606,0.29256879073333864,0.3221495238983092,0.30684126318511745,0.30248879439370285,0.291858632468151,0.30768090329727205,0.2907344641047341,0.3263069957861447,0.30940191545919593,0.3103838125749719,0.3021588696036296,0.32494316328589434,0.30129437755889704,0.287226020369917,0.327739289207915,0.31552421757257837,0.28847436236042534,0.2881623094128113,0.29957016089042565,0.30646999650785056,0.2921795724864181,0.3152226309746249,0.2993029102438623,0.32884075005191354,0.3172644612432941,0.3137442963653444,0.2938376958727723,0.29533772401486263,0.30049181532707187
6,0.29194682863278476,0.2892712332382861,0.3153726397290995,0.29859378442439904,0.3303238412774073,0.29543702489964946,0.30742204226328207,0.2890417902073054,0.3086882451889478,0.29207871462070184,0.2963892215365395,0.2901030501596741,0.32123614667515243,0.28942188037055633,0.2977743474261983,0.30592137067613245,0.2933200392713929,0.2936770017929634,0.298954083585208,0.3278201941559623,0.3221706048254368,0.2900752928803012,0.3110323937475727,0.30641780382813855,0.3478193243808666,0.3050861625032021,0.29789808218566133,0.29564369568373505,0.296078148030593,0.29173378663215765,0.2945376179613405,0.28694503596037796,0.30534363166796263,0.3134038763673139,0.2990160032033347,0.3051457717429339,0.302408396905796,0.31466255050448877,0.30364364856357196,0.32671737563982906,0.2855745642903277,0.3121699395437497,0.3192775726380612,0.30909899592097984,0.2992385422345543,0.3068186109646774,0.29571115366434336,0.3079523782192991,0.28949621133302206,0.31479404018589585,0.3048745583921303,0.29116587954418244,0.29658269701045825,0.3148085436591062,0.29613799833190335,0.3172925536063104,0.3064125445125932,0.3023941712232144,0.303466759055544,0.29187834466490514,0.31303538586189317,0.3076084155530725,0.3058369672699556,0.3164628699251995,0.2930714294996868,0.3177344541357173,0.29087671502787515,0.33973626926380046,0.30069646926813076,0.2944723482816508,0.29293950749499365,0.28687970216270997,0.3062247670757071,0.29915361781521177,0.30272197566198566,0.2898304765734078,0.2948733317115634,0.3017002991312925,0.29804312619390466,0.30638066981171325,0.32550562058593246,0.2965106521003686,0.2948103793580567,0.29751773130110615,0.30677986557474146,0.2973644212354191,0.30031970155980175,0.2936455889487479,0.298751457958387,0.286956009762548,0.2966387978033013,0.3122966261716384,0.3008638018984694,0.29340343265899194,0.3052825858293304,0.2872404600442522,0.28865698876339174,0.31108263674081776,0.30036792774663174,0.30637657705663623,0.3108102366267425,0.2888986123440394,0.31100779180325994,0.29843287109969263,0.3229267042513566,0.2903552495693769,0.2997958603874589,0.2908493756031231,0.3028014127284643,0.3346591062363885,0.28904373780512327,0.30244713230128856,0.34748426236890845,0.30956879246228536,0.309005006494605,0.3160869499033108,0.2964011911768947,0.3133530496034985,0.29812106423269313,0.32169249270044553,0.30473793378069286,0.30573150351012257,0.2987757242135054,0.32000006316394936,0.3078379645521835,0.29833588891066726,0.3061585031155666,0.32265338992098935,0.30598435414934383,0.30482514340763706,0.29649226741192247,0.30759518869669794,0.32045479939322086,0.296599721214606,0.29460922368865516,0.28570947370059063,0.3221189784852382,0.30322614191223024,0.30336028844432344,0.2865075204414512,0.30940491957153765,0.29967580892729795,0.29046253538050004,0.30603040250829483,0.3145354572151634,0.2912446665228144,0.29363868013313943,0.3004805350178241,0.30749016450614797,0.30917397650078937,0.2908856534008385,0.32164232752742106,0.3038162800406693,0.2959328859749851,0.3009641007628219,0.2891388413708166,0.3241486069654151,0.30164689605379985,0.3208424883767166,0.3105834365228679,0.30188624934410474,0.2949600641371628,0.29241543031841577,0.32561469914584273,0.3065467403637863,0.28955982738686603,0.30511428592014483,0.29372779435456114,0.29335975896356115,0.29767313873682755,0.3201281699737838,0.2962307333862926,0.30935013201367445,0.32366891154406646,0.3484070198969985,0.3060825075631632,0.29885212809191725,0.3189306100710934,0.3172596045970247,0.2897860192245617,0.2942315125786605,0.29706528243524033,0.2891071207200561,0.28626636907630404,0.3018414144716065,0.2953567036801952,0.29792867245261107,0.29798031428040533,0.3023967759808167,0.3097821825443315,0.3027530599501195,0.303272427542026,0.29822432000062127,0.3053814576803071,0.28550695173110385,0.32946469135157297,0.3252303953243876,0.33995866168478334,0.29994447567952204,0.3230318624552926,0.30346249783967066,0.29040422255709647,0.2893379012728182,0.29610379045126906,0.3008845138906833,0.2939335670789487,0.29322998140045126,0.3066577548954613,0.33558936031800063,0.32515858897136324,0.33425579551060974,0.2962473771909174,0.30632201716526664,0.2942717875093849,0.30295925658503353,0.30798274050686636,0.30394369125149134,0.33108352191638585,0.29857776466848895,0.3056898122398723,0.2843059977037018,0.2994864917288698,0.31304046228004273,0.29141604971495294,0.2928517432279373,0.29533786031100545,0.3090555352796307,0.31025152800697187,0.3214357288406601,0.2867951480990155,0.30752978308532963,0.3167480712888836,0.2962550013753901,0.3069556077157357,0.29970259054866105,0.29087145382598295,0.3050452674991587,0.32438031354033836,0.3118444898970171,0.2938835433114562,0.29790112488550485,0.3007134283866376,0.28001837477226393,0.2890158013401715,0.29809702822322787,0.2912143444010759,0.297765314470148,0.31120940367365957,0.2899766885278186,0.3056142797566061,0.316425462297914,0.2932433554393576,0.2984589256244617,0.3006835636897036,0.2913291808447688,0.31705449556386983,0.2856676062272134,0.29759962939050416,0.29676647546821794,0.30197541243862036,0.321905041823605,0.2965297110035524,0.2988721779247326,0.29148657030312436,0.332226855393961,0.3105860025986925,0.301131282236253,0.2979491659338839,0.29879066215159794,0.2840205167612809,0.31281610323379333,0.29345177036045494,0.2958077180138244,0.29090502169086097,0.3085393395626533,0.29607009012810787,0.2972491468780117,0.307927365150549,0.30773654088777896,0.31796290812154543,0.3190023540962478,0.310099525656356,0.3207400334079217,0.29263820506812815,0.2992438978031916,0.30893462361017854,0.2962926646373233,0.305639228426073,0.2943519404835895,0.31125610363251066,0.3004285082606526,0.2885460660973836,0.3352773239117962,0.329846306513745,0.3117536112602595,0.31449881735308105,0.3233897416686788,0.29201688626802436,0.3143636390580177,0.2947868232957852,0.32747859197292306,0.2997891733012946,0.2966875528191667,0.3296944090311601,0.31605970162073016,0.3125547255512853,0.3086972383072723,0.2954417571463134,0.3142915347020496,0.3039650144490296,0.2869128998932426,0.3184848009427341,0.3013019963991522,0.3011766065754132,0.3120501046080559,0.2973985758447953,0.3030748902186704,0.30574757104726585,0.2958234564423695,0.3312223673083582,0.2902961922442811,0.2914824610769636,0.303662452623534,0.28815369263797497,0.2969798168997679,0.288475966438023,0.3332117412563064,0.29800758434419794,0.3004503584934933,0.2946783970025627,0.3174745720423143,0.2969307050852235,0.2956097325045624,0.2932002065306013,0.29736370875588813,0.3140854346553513,0.33566539941982526,0.3130315358933455,0.2890370845212511,0.29160676427310117,0.3196362385632948,0.28968568471876754,0.3252707624489224,0.2919093547321646,0.30273216603709685,0.3065176210423579,0.30349392681570075,0.3087960236041186,0.2978433060371617,0.32864120517097456,0.3034962735227905,0.3020774840922972,0.2856214054920378,0.30200003526614455,0.2925531528879356,0.29700860631324344,0.30129586582190226,0.292427782068128,0.30704196604124256,0.30994278060750113,0.3150027580941885,0.2880466038275141,0.28707575350891845,0.3010098193848754,0.29432523262550825,0.30172739031459594,0.29751857288587474,0.3013260383601115,0.29228670539156665,0.3147333593706289,0.2984512227695697,0.28450422028364164,0.3051858594157898,0.3142059543196855,0.2922099484750107,0.3054155385752856,0.29114345139063913,0.3056185296859572,0.30352805864401655,0.3149683434927407,0.30938310253767387,0.3244292435422013,0.31904394904212074,0.286606817445097,0.2978743851244574,0.29055308687949666,0.2931135861295695,0.3137531286136449,0.3068498746314515,0.28230828554064435,0.32278306536690804,0.31291105596892604,0.30016842922098086,0.3121059076018365,0.314483786364317,0.33553873108026544,0.3033576202911604,0.34389691072202133,0.29997289467226734,0.2925254250336401,0.2972658128659873,0.29060426026075825,0.30280698846742443,0.2954477264427177,0.2925780164162408,0.29883373997761575,0.3306742871730882,0.31415400543457694,0.2962731740665226,0.3001450678394943,0.2957140516663669,0.29466121294766073,0.3064635871096832,0.2985433823579465,0.30720905692601946,0.32351707302912763,0.2991506561711622,0.2948387685250191,0.29392210742574176,0.29531758470022146,0.31970737573492947,0.3123825681913233,0.2864268481889191,0.315569106735487,0.2922792635095009,0.30768301158129935,0.3007236965988265,0.2992320516373638,0.29627959519630276,0.30872607842185923,0.33337171913404007,0.3020452729155504,0.2895151483560999,0.3067006529557155,0.2926708678766555,0.3049012794157561,0.2880757423182919,0.2870517251220358,0.3011040238959864,0.3024688324134156,0.3406669232094942,0.2882030901884962,0.29134256451497864,0.29670887712209776,0.3024065452549659,0.29535464694061286,0.31691924903426233,0.3115056951669385,0.30689974540577525,0.3108179392587853,0.3096776405467036,0.29866781264500786,0.3026337919122446,0.3087072602573251,0.28760195074874695,0.2895131323513021,0.2947483154520592,0.29279875417571805,0.33122364745885835,0.313288937759057,0.29561457155033405,0.30006169207937755,0.297014330912408,0.31936907491043093,0.3007434687926591,0.30076870491490165,0.3190078874614183,0.31425639524512544,0.3063671622408256,0.29844373903714577,0.29766417202709067,0.29340936443997123,0.31182125213501255,0.2982187789646406,0.2949428554769702,0.30054921156932174,0.2988176771993114,0.31801271368959716,0.3319596252020003,0.3169244541474003,0.2988374237390952,0.29775313498255374,0.30808073453550633,0.2960729709426343,0.29233443912877355,0.3142646469980962,0.3006380661142468,0.3005110400057344,0.327092192859025,0.3125856482535277,0.3021453694348483,0.29813384830726053,0.30722451866817985,0.29414805643666136,0.3157659966754867,0.30709766538760774,0.29847636108674364,0.28959860102443796,0.3327989032873337,0.3021100578137387
7,0.29177740181602596,0.2879766244862991,0.29439306638370244,0.30270646300454074,0.309585474865924,0.3046875648759321,0.2977258590087959,0.30306451110763416,0.297796788448633,0.29011507611239923,0.32801975921976834,0.30215990304117823,0.3097220785979179,0.2965154715774337,0.3362236022963209,0.3291116439734874,0.29362556107766996,0.32915534092135545,0.30974258951505707,0.310529857259697,0.30607040876425,0.3040372730418791,0.30565574090117603,0.2938877800739409,0.30762883127561075,0.30363256949126005,0.3054993801791184,0.2991565487246389,0.2875690141550037,0.3157533003044058,0.29667116722288644,0.2926369968951025,0.31116944021739645,0.3018170202135221,0.3032465397755655,0.30254887198492997,0.29848311924282606,0.293685881983375,0.3147215568089914,0.2940937973532977,0.3049294368116221,0.3169905475708094,0.3054550244506613,0.28653809793190954,0.2998373305437467,0.29271464341194925,0.2956033980882662,0.3216434028483536,0.28644104882728383,0.3161925270877116,0.30726005804298206,0.2912845821462699,0.2937260710311537,0.32151485772199523,0.29546464798489763,0.29758359574973764,0.3018116486885512,0.29446370510979414,0.3001302781025367,0.3004964151861583,0.2948112465247719,0.2909924658458275,0.3098540082683537,0.3131026747650525,0.29441254999881433,0.307677898136626,0.29387263522249035,0.29721253002068376,0.3319346937538431,0.28902835043195396,0.2883003345457187,0.2969901177115458,0.2959583843794472,0.3056377060462766,0.311534097203731,0.31534073857364686,0.3024748679954845,0.28472541013165,0.30818476082281204,0.29643352221033764,0.33176717198614514,0.30243875072154114,0.29097972596568866,0.2848341954231191,0.29164917098804943,0.3053069720834502,0.2889095412268371,0.3187028801980948,0.2935752703919955,0.2914282336806949,0.2937442226334434,0.30436342834421176,0.29415880716272264,0.2962752415437809,0.30913123993772496,0.31266794581219465,0.3108720880765382,0.31377950673571375,0.31624672449348357,0.30119324203724773,0.30933772059031595,0.30876356405325006,0.30132287716440026,0.2863641396510369,0.2972493481874947,0.28260129692962843,0.2999497580937183,0.2949353328116847,0.3081213215704258,0.3138897488451993,0.28978007289587776,0.2896811423362421,0.34748490331033255,0.308652104544213,0.31602988287500205,0.3030498673308012,0.2887050645690854,0.2987107870671418,0.2916926947405168,0.3382208904010732,0.300929250736989,0.30218085525069327,0.2872050602688557,0.3001969096640141,0.29149704162384815,0.29081831461408475,0.29236340841401437,0.30371378660278614,0.31942997151316854,0.3031687707041258,0.3050532954469479,0.29755514281697604,0.3329627983087323,0.30816080773016435,0.29415520637785464,0.2898087627879933,0.30033012343321297,0.3020408789990533,0.3215586555619354,0.29386210501976884,0.3377357175863741,0.29466311894753106,0.29494607268238143,0.298733221675228,0.302626767689201,0.29894143009937096,0.29224696889348206,0.29575630715123197,0.32982955582796397,0.3186149271874408,0.2848026121482813,0.31911626336322985,0.2892477331390239,0.2885328491053929,0.3043102558433814,0.30845026701531963,0.29071282828864725,0.30505907839224544,0.2977056131556981,0.3012408261029084,0.30556934713609235,0.29998719455400374,0.3126001564851102,0.3277293937440219,0.30494882757879427,0.30193693573408276,0.31514961686384774,0.34588329171509047,0.3108723140644657,0.3126846773666454,0.3114510740921294,0.29876492215648354,0.32348894143146156,0.3125593329741285,0.343361793971016,0.3105233864719292,0.3195584064592927,0.3237396098269206,0.30127565276708584,0.29832446996976103,0.2954530889327073,0.2999151619304704,0.301846035580941,0.28932466356613595,0.2949891192076629,0.31429199986167944,0.30655659980084543,0.3140710259878876,0.2969048348621195,0.33003240748222606,0.29270902271590266,0.3184090421443734,0.31122481495908605,0.2906425491444816,0.28578569774712503,0.3286539160643479,0.31086198165791507,0.3014815630248583,0.30107706311979704,0.30533840027285003,0.2961294960081777,0.28777556250253794,0.29756087384717567,0.3154418097980165,0.30039517093381657,0.29135373318018826,0.31330384658567323,0.30226446234968835,0.30173579130537037,0.3293748313176136,0.35160281331043974,0.2953135344785889,0.3108006593883232,0.30837758894290196,0.2878486713332882,0.3108620000188229,0.3033925922038174,0.30678645720372905,0.3320548487433864,0.30249503301535485,0.2957227187131552,0.31302139386505207,0.3087614478750806,0.30063338394364064,0.30701847944344485,0.3032777233336449,0.3029926382410992,0.302618198336855,0.2917483595385061,0.28492885795441125,0.308625984142875,0.34778742053430056,0.2945300919591603,0.3440225164940928,0.3161128462990347,0.2988858780418929,0.2973881939057253,0.29556461713246607,0.2975465891313196,0.29231601590797085,0.30153073825862664,0.29617126018938983,0.2967887972440438,0.30219063416801484,0.2957955080665632,0.30419261476278814,0.30068389839079224,0.30282344717941695,0.30277416464856016,0.2935319874435428,0.3579361386098409,0.3053961798110412,0.3100477689318043,0.3105231024782347,0.29420991921895884,0.32591265973484884,0.28781290686095035,0.2983565871978607,0.29868519512909353,0.2980689020910675,0.3293947231820632,0.2980133141029372,0.31105800985121757,0.3077689581287641,0.3219405933542032,0.3283534434494504,0.30225536460356633,0.31093041003260147,0.3055177219717704,0.3007768718893317,0.30087185391197635,0.2950088449608577,0.30368606620137895,0.30140501789646323,0.30132554571919473,0.29815128580675665,0.3218382915132127,0.2947846905209973,0.2992327660418245,0.3091160533981834,0.2952051741031296,0.29153243424558073,0.36955165875983875,0.28624734601532953,0.29812577557847064,0.30773594451713693,0.3008909748087948,0.300710263208839,0.29740947632030934,0.3055534025109646,0.30061587378396365,0.33699435969288566,0.29577752818533243,0.3151420066682336,0.31753533662056344,0.3175538175268574,0.31341397285714134,0.2914086356219059,0.31205660562867105,0.31484753260020504,0.30385327026003744,0.3032226714933398,0.29154786931257703,0.301881653907209,0.2930575782180497,0.3043243003001149,0.31418934382745733,0.31174623118625266,0.3070692656080207,0.3107570239961855,0.29389050647457376,0.32727247210057187,0.2964993724841706,0.31030011940490193,0.3006960369165138,0.29993277303449634,0.2994058091780233,0.30668303553749776,0.29479370942245586,0.31775277529914125,0.28872026080525925,0.2996528608652115,0.3116495034933767,0.3070318205429479,0.28769813413606593,0.29421192990724176,0.3022730850986782,0.2898268966306807,0.2943626206286819,0.2952565557656819,0.31825926222228973,0.2935298830418521,0.2911966453969982,0.31996361708008136,0.2966613855741401,0.2971255401455629,0.29920499237404374,0.3113952015279262,0.3150179074589864,0.28328644259996094,0.304873072272301,0.3046216257876638,0.3323354065231258,0.3018036511002095,0.3034534505590293,0.2977795183463691,0.29012295193630694,0.298085346565759,0.30443141387861394,0.30454004182179195,0.2977578173945127,0.30436146681061915,0.3011538222220707,0.29615808155094864,0.2866290891968331,0.2925389108957882,0.29386590905675375,0.30166781655141645,0.3120208169777784,0.32046616690489593,0.3221950467678411,0.29335889804583987,0.287453950722062,0.3048631528169997,0.2964352430046274,0.2993508261179019,0.29739118403841713,0.29189583031319055,0.29638951597667185,0.30022539888423594,0.3072929849516881,0.29627019805243476,0.30136694974948147,0.3010944362889823,0.3199936698069483,0.29585608515551065,0.292175448999058,0.293399746238654,0.3056515166962379,0.2958369669759857,0.29361387304905284,0.3159680633319043,0.3007949896437831,0.29157314742200235,0.301414723299091,0.2954883617996423,0.2965168270080768,0.33798454964928054,0.3013344380237067,0.29718608373622274,0.302582570344458,0.2932415312302619,0.29910349725031316,0.2953091797631506,0.2966690620728844,0.30445620995243494,0.30179507392641935,0.3212945438270636,0.31039073656130395,0.2889904279582057,0.2946192576479051,0.302021122331555,0.3229806338478434,0.3007372446109019,0.33889073798355246,0.31166742975013517,0.29581125577681755,0.3083217046703249,0.29539210085450557,0.3232377890082806,0.29724974271360716,0.2992041164631278,0.3160659696913443,0.29948240204314486,0.3088267312554466,0.31195312408261655,0.29427487262500207,0.31456073034351056,0.3021611512339736,0.30033436028073673,0.2915748594238682,0.3210037313004911,0.312880754513556,0.3105660697413689,0.3285956246469427,0.319942858300832,0.2901547229030226,0.31263823516181083,0.30139140939815084,0.30577091102638326,0.30666308341914555,0.3028998663635319,0.29561978984445736,0.2957240790276957,0.29488444546308545,0.30373727102858916,0.31611818650236645,0.2857895993294312,0.29491146724703177,0.30138366745324335,0.30802218043423174,0.2956565252540441,0.3042377630217138,0.29821299373308646,0.29590706345111695,0.3086358036940414,0.3082746864069005,0.302294744203382,0.292497598537141,0.2970515638145628,0.3010460423129219,0.31798198267282235,0.28843731696623925,0.2988259885414653,0.29074495906190556,0.29241357286289105,0.31006184067802656,0.29511472369951963,0.33386772909027485,0.30675185633283564,0.295686186347522,0.31605900532196796,0.29397119179527287,0.30909225422517983,0.30245763402853704,0.29123553991567463,0.33021832749096236,0.29096551049746816,0.3020154464205371,0.3121184846486559,0.30595947248258815,0.28394450183476805,0.30173512716546297,0.292361777441711,0.300806500669571,0.2880802631104066,0.34608827970829903,0.3047417083935466,0.3042866371895364,0.3097322257695926,0.29325014582168857,0.30161611864550764,0.30936349888053255,0.2993557054466638,0.28511412111502443,0.308035714383766,0.31078160292540213,0.29334892776555366,0.30704400859304987,0.3046712391917136,0.2929497029197701,0.2890484828321285,0.3052381751722881,0.3165558887300077,0.3131847505505282,0.28329879208374364,0.33326219408926927,0.3001929207340318,0.303631321704215,0.3121409833614348
8,0.29894833808901,0.2902363882895645,0.2953806594653151,0.33955481386512215,0.2865838463173986,0.2958273191461717,0.3351442194903112,0.30403356578687896,0.30210374507853105,0.29192645611706486,0.30291315697793014,0.303578756886441,0.31595818061619113,0.3103168419060412,0.292248906721246,0.30475846875466533,0.2930632076262933,0.30153896370828875,0.32511826662077403,0.3193310520886194,0.3041868214032492,0.30509558627535377,0.29438278991552635,0.313251146977339,0.29949957104312547,0.29714096872433526,0.29312540130134856,0.2892262364044177,0.2883508676275474,0.3061871115697584,0.2991907341991862,0.2966901142327576,0.3207528012303118,0.2972828844414207,0.3094981985861446,0.288784513003218,0.318128526728816,0.2863534731526661,0.33606272939442994,0.2972489831495484,0.29222220785091024,0.3153168459694874,0.3007227141957128,0.3007484239138062,0.2944497770900035,0.30488465341105175,0.29439601781078556,0.3026328558547519,0.3091948763848928,0.3250249612832644,0.3187787106028035,0.3225945099935376,0.2910729949131233,0.30564908903228116,0.29828659659120016,0.29419810645106154,0.30453384055266774,0.2984776599039005,0.3146759720462136,0.3036410595243665,0.2945413606309739,0.2971583285092424,0.3040435591755465,0.30197923294871204,0.3010943320484668,0.31801450251687613,0.2866488154149401,0.30720944081148616,0.2967214410260322,0.2912875771850277,0.2942518020779594,0.31624990134134034,0.29219496910590353,0.3224381864545906,0.3062363480038234,0.2888620717406202,0.3179538114822242,0.284243708066526,0.2993678454151174,0.300254421912777,0.2925843234083706,0.30142845289576453,0.29902343125970193,0.2929141779617549,0.3029422385761765,0.2889029072946322,0.2986886105871108,0.30765991250976743,0.2995911596425755,0.2885835278822476,0.29421119102697324,0.3034976661239364,0.2984469116252984,0.3183423132116818,0.31829183185552623,0.3138221277342597,0.3070314020819838,0.3093000488933201,0.3141599973151455,0.29897370856752903,0.3088779456237282,0.31129214462361965,0.2974214996525754,0.2904012254533207,0.324947558474903,0.2840653206005341,0.30333164607474267,0.2906190563531241,0.29352175571854283,0.32799401333510186,0.28793564441959585,0.286188331286715,0.3442609044960055,0.31164483106371954,0.32995140485926705,0.29886679298407776,0.29395195044034816,0.354786541640648,0.305429649550132,0.3302754467232584,0.2937154322652038,0.30757928195636414,0.29061741782628536,0.2966403506167156,0.31658859910395953,0.2904884876599955,0.3029339862114784,0.3209737395549564,0.3094153731230347,0.3171193553503467,0.30630071072229115,0.304779990439229,0.3103073451360149,0.3141831176306521,0.297419409368349,0.2869482458747491,0.30474215614955835,0.2967180899055397,0.321431668688033,0.2844166635834836,0.30329091610462877,0.3028459163345504,0.2871738663958113,0.2988108526581704,0.2905050999696755,0.2921333580023361,0.29776229261426107,0.30445083841976184,0.33747341949651155,0.32666849413101057,0.29074320088527295,0.32060735186952727,0.31468136376845435,0.2899356670697852,0.31041294772535233,0.2980409590174631,0.3008668365917817,0.308573694876083,0.2924217683530384,0.36397282902819217,0.30334466237339575,0.31046804846496057,0.2900712571493392,0.31391087068018547,0.3145260407545676,0.29883927965793006,0.3015951112180814,0.3084655693698647,0.3163259842906839,0.2921847601445401,0.3225723763623685,0.29524083431178966,0.3120654159573907,0.32145687934536676,0.329576577643516,0.3089747386165573,0.3041935050246741,0.35470128633266884,0.3055126262781694,0.30574848784634207,0.2872508969024624,0.2943606135013813,0.2875627006583248,0.2997697072417731,0.29151551931145797,0.297007012136741,0.3120006980243514,0.3001081482903685,0.3057397631251631,0.32360787525673945,0.30349018183746357,0.29915969250439906,0.3227849550055638,0.3001347537182722,0.2925242205129791,0.31202125832294225,0.2955237698280523,0.292750260891302,0.3050636758047995,0.3102349974301158,0.3134491761488578,0.3011557536991207,0.3043277761510688,0.2926777231235228,0.3084141656881686,0.2984096911294335,0.3231028738171154,0.300434739353454,0.3146244578785875,0.2961395982303417,0.32864397922081745,0.3233411252270047,0.2996163752201601,0.30944371953109073,0.2829663100694792,0.3044511737052958,0.3086403463824799,0.334105357549939,0.3337456902721153,0.30582166142515776,0.2881547543070665,0.3085010475781533,0.2986166842704911,0.2981057767537495,0.29205084430687467,0.31903299918373323,0.29150919022629757,0.2958881086787779,0.29676611136170095,0.3007816283529142,0.30410436775644223,0.30191050555085697,0.3020760930945273,0.3217787103103468,0.29857159032961594,0.3042073784783862,0.304244725919842,0.3038834007619623,0.29427337356091954,0.2901097759319925,0.29769449855640495,0.3035305654806197,0.2847440835030307,0.29842012604902945,0.3076006090952914,0.29643263585215235,0.28879473009417256,0.3019670291730847,0.30512650950460096,0.2971538673537139,0.37369660823072787,0.29954386317131626,0.32314161924822765,0.2963028530983629,0.2950481650353468,0.31481444677232406,0.2913965570295664,0.2879372453088206,0.2919225411777235,0.3028019559801995,0.3056903510059569,0.2868870713388042,0.2951910557701139,0.30112401187599247,0.31275601265693237,0.30826564265028455,0.31368016343726185,0.2949771880532671,0.32632747622893427,0.3085691544105854,0.2822451669199613,0.32156185930542047,0.314545958683412,0.29014735977700046,0.3010114620973461,0.3021036813436243,0.29289789121651216,0.32324961382785034,0.2950369940360008,0.30524070987026275,0.31450876008593476,0.28420360482284746,0.33376028582636785,0.29003627459120007,0.32026295605262967,0.3317606147763733,0.3077206975139447,0.3087193577532117,0.30220824586932066,0.3166304786913956,0.30756993768796886,0.3153248043151878,0.31178158751577256,0.30201752295596307,0.30915640669339256,0.32959888407846455,0.3232529217958113,0.299752680746984,0.33741339243797036,0.3113747720379808,0.30189706564497987,0.308983853024866,0.29680362447756775,0.30838064193194176,0.2995453957031272,0.30961058486794923,0.31631194780358335,0.2874864445414109,0.3069590809693014,0.31705776157815224,0.2899944220973844,0.30848102713982256,0.31811952700907714,0.31616871916499795,0.2979732252307854,0.28976483328898944,0.2950151014605382,0.3183430859105294,0.2913752428979813,0.28490123084482194,0.3015399329189128,0.30282079773797366,0.32491687653104906,0.3059342275415751,0.29297303678890935,0.2942095792205505,0.30150910875407405,0.28997303615891573,0.30331148958804716,0.3074876913246838,0.3066200704159239,0.3009375665957915,0.2905611842328727,0.2892910285096927,0.30889085937179434,0.3011934009881555,0.3000164591659244,0.31122945765116455,0.32489241660176915,0.2943062825451447,0.3190284055046489,0.295092278397442,0.3180523841041339,0.30332382246383505,0.28692755690920674,0.296327123941058,0.2921582224084142,0.3266077293875698,0.3099067136845818,0.304244077783843,0.30742807218665735,0.300773686247541,0.2951547678849525,0.3079250187905627,0.2941559845106062,0.29412103655493854,0.29739600898660107,0.2876420714909835,0.3323254205966996,0.33010086437634606,0.2993761935377063,0.2996975549009019,0.29967726319933335,0.29514993302632364,0.30418986109661733,0.2959086442061745,0.28545437760675324,0.30506897878734085,0.2911144546856407,0.28689005995161343,0.29216257930239314,0.3129110861781882,0.331721618158214,0.2942149498053307,0.3174826084426212,0.3219510523694392,0.3119281419037848,0.28979395399377855,0.31081704829927365,0.3273970332891841,0.3347297433763836,0.3585031916649781,0.31697795843810306,0.29078786441763416,0.2891485107537103,0.29501128133760257,0.29395873802268746,0.3135847264780242,0.32026292690423924,0.3150617844420878,0.3271395199821412,0.2938387278572689,0.30204097000671476,0.292805456963673,0.29188067179293053,0.30608610169144373,0.2970767609125031,0.32504602371250085,0.29902521340645133,0.31028240306342736,0.294266927884095,0.2985367710229924,0.3127110109945833,0.29842146011419535,0.3084559870363773,0.2943262843400512,0.30820667812876995,0.3044031441027471,0.2975412821256519,0.2964350552198156,0.3436243635629766,0.3063324688457681,0.30209993157823467,0.30601488768805724,0.299374095689371,0.29948051509935797,0.29191535214355935,0.29012191935053544,0.311161406071932,0.29527178301696033,0.29513653611981927,0.31413467530990236,0.31065645197014186,0.29500288117028833,0.32837232753199236,0.2909298407866508,0.29939727176269615,0.2898331616420749,0.2930400889011469,0.31184333036483125,0.29403132289896866,0.2875867346637285,0.3098896188771265,0.31944473948626106,0.28713547455288296,0.2953926768712496,0.29398363619076956,0.29056277158270427,0.2880774720092102,0.2976763519291047,0.3519235768832442,0.30027369252036257,0.31236896769272354,0.29631636837594966,0.30767198880248225,0.30064470669485555,0.2942496147080176,0.28908689775943275,0.3132923858617433,0.29034251360606494,0.3057050505913693,0.3233990440482434,0.305366332780782,0.29726007176548885,0.2856009481215419,0.2908303901396521,0.2956200453660517,0.2895756641396726,0.30136807334481014,0.3260726538569659,0.29999645474467507,0.28959920726281485,0.3021470280611784,0.2980025704838439,0.318789798036614,0.3019843381358963,0.32727015197885356,0.30194392519701524,0.30252809127100744,0.2928954557405715,0.287080271969702,0.297296702812366,0.30169701108734326,0.3091641106631179,0.2964185426975466,0.3131290060960955,0.31418812769111126,0.30825294553302196,0.34423421680454835,0.3011313643181628,0.3108004641617777,0.2917100913681222,0.3188003990628141,0.293233201635713,0.2954364957758939,0.37822223784080017,0.30758076582944555,0.30787321200766077,0.31955509516084557,0.31623169292409564,0.31075073522269514,0.3013693136544858,0.306944225097811,0.293181977637348,0.3123824127701535,0.2983546669261366,0.2995487489771242,0.29859588656009395,0.29727401568706024,0.2975561169176433
9,0.30699179687291395,0.2952723132807249,0.30258366989945806,0.3084606950527377,0.29241829785503304,0.30842199161561973,0.3066946421731872,0.30745102164452687,0.30370389578756807,0.29551207410875935,0.29358303048390166,0.29642880658697146,0.3052657306398587,0.3665719083449518,0.3050603664835668,0.3392034649529746,0.31308632776731543,0.2905599366349841,0.29384475533008725,0.3109201131960136,0.31075035830534814,0.2966750256103266,0.2865666394642849,0.3024681752856253,0.31141773068408896,0.2984002188061157,0.29963621542062346,0.291468423533141,0.29353059530002107,0.29080588334881174,0.2921588179203267,0.29133037946911655,0.31473390779399724,0.2985095656389172,0.3008629128705658,0.3094416368627183,0.32386151592534,0.2907882866632046,0.30525347673296255,0.281830128597998,0.3191963755058173,0.3121948436344668,0.3071782392595481,0.3117774581427983,0.2912897929003503,0.30540946907650013,0.3054195043336691,0.30283851086536717,0.2881604371497646,0.3029446448822527,0.2971633471250682,0.29046352427817684,0.2970877036426892,0.31690575657285025,0.30252133993647773,0.2944001713850227,0.30708829382272695,0.3071132621718284,0.31880374205252904,0.3094474957524977,0.29946289325422476,0.3008264315052984,0.29841396259025144,0.31755685627222036,0.29648444980134225,0.31369823432518207,0.29302872574823696,0.31051084343931645,0.3065927231129844,0.29002395349208815,0.28444775915707843,0.29767341494396804,0.30987192324683627,0.30646631106666117,0.2989089050067689,0.29693046904108644,0.3049852252411832,0.28571377445526214,0.30286817446309683,0.287427985366189,0.3040550817406703,0.30319196475834287,0.2969185154467173,0.28622279448058563,0.3056900273902804,0.31047281102732055,0.2883430339180769,0.31933015433543693,0.2908741486754721,0.3103167948833008,0.29655230076034095,0.3099894021716124,0.3014489081444364,0.3058621416972367,0.3061989253741476,0.292697964221016,0.30743637262248513,0.31523800511737177,0.30614866518737044,0.3106555610511542,0.2937351269524976,0.290497071603787,0.29510975115801297,0.28676105630866344,0.30341149079581065,0.2924164446810531,0.3006061794277914,0.2966122833727254,0.30622464239173613,0.34406552448024696,0.29748232654016543,0.2878740907451445,0.33710744489416034,0.30821123950989493,0.3394608134003305,0.32424853154217725,0.2924465929806861,0.3071293926579777,0.2948323074734154,0.32446913229602437,0.30516067476035297,0.3148999547013524,0.29764725456351915,0.3000262651958249,0.30369904285870886,0.29347876821844215,0.3059386112668127,0.3028432722700025,0.3120737263982195,0.30886242547696124,0.3039503945883267,0.3209640163779261,0.330903850520866,0.29680258297418793,0.30821393670928654,0.2945616198790231,0.29959717970972094,0.32359621492744367,0.30049525685058887,0.2898973751509849,0.2997797826829963,0.29583756090729024,0.2914580899589403,0.2998522194337722,0.28848822961175563,0.2980029850808081,0.29092867537597294,0.29026783171888754,0.3040939099210856,0.3216601252184192,0.28273101425026426,0.35346318110298436,0.30872591119670767,0.29075220495629334,0.2973670281379656,0.29115173860496163,0.294974328012106,0.2968361701038464,0.2951974988863872,0.3447193838676486,0.31515829922476435,0.3010171855908018,0.29326532141845896,0.3300371055445148,0.2972391003294225,0.30457574253503894,0.2959895047047718,0.3017422524587767,0.2959325451336903,0.3316271628819841,0.31538622835895364,0.28965589742345704,0.31260632022107354,0.3125541618138713,0.32426673938244277,0.29928144802448614,0.30933156460288874,0.327248114939111,0.28769904533614576,0.2905183321030499,0.2842563200029312,0.28831103799118113,0.30785795261685844,0.29494119035038885,0.32430812788489183,0.2913133311640106,0.295966066688821,0.30554143110245996,0.3137139125565681,0.3131292395535848,0.317403960626602,0.30524676574444587,0.3248444359612725,0.30817844128562394,0.29313356872866336,0.2998984406719051,0.3032405384573125,0.2878579085075502,0.2877018462764906,0.30103979264005,0.3047852304120789,0.2904826839586424,0.3098949245693963,0.3027854997083971,0.33404747201208823,0.3088262986199766,0.320071865594755,0.31045601239062154,0.3069298122703842,0.2994836917316924,0.3702519605501243,0.2931847840553993,0.31081143778014453,0.30423833206351625,0.2928091647708432,0.2948037013586975,0.2893250801046101,0.32057064335933627,0.30912656335284294,0.3015906059504495,0.30262224189520864,0.3030356288345982,0.2980619820534046,0.30036747123530183,0.3109502256038939,0.2983278596366975,0.2954360687403861,0.2913469819865876,0.2975765957790532,0.289042445524985,0.306889683640152,0.30224357678831126,0.29790724722825146,0.30861461989173045,0.3107244196946245,0.2958555153751036,0.2889365048548728,0.3333341201167477,0.295105775624486,0.2854263359810393,0.29267700708594835,0.30397472264720954,0.29393015857138743,0.29113736007095137,0.3133725689995607,0.2967007315315851,0.2876836039287875,0.30694077787822915,0.2938759238936787,0.30003618862344883,0.3993344736629891,0.29632617225444396,0.3155627230541112,0.2914441032360563,0.2980861137461448,0.3074398624584684,0.3034569841244351,0.29776611314804957,0.30123329824697176,0.3025231639590266,0.30976836525570395,0.2932430840718177,0.30203622482244163,0.3195404411751847,0.318387886005566,0.2964376467435622,0.30577445600593184,0.3060852430311184,0.30088250630234425,0.299603824479434,0.28865377621406113,0.32933755237391504,0.3012545486776344,0.292243852612793,0.3002843008933159,0.2957142807555441,0.30571509997844115,0.29333353226457415,0.3128603126574403,0.35023703312310095,0.3181882637880321,0.30278800049354493,0.38077867667276355,0.2940523753569274,0.3124808958494547,0.3362022599015553,0.3087890815822937,0.30922068773285283,0.3036575989406925,0.3048878892778391,0.29070651325946323,0.3031466168647266,0.29949800039511004,0.31090437889664824,0.3068779050281564,0.31330866885440156,0.3024442786321313,0.29340540670817755,0.32100659433155293,0.31381912754234564,0.30725039394495257,0.3069315551338379,0.31506988166425476,0.2982809264688104,0.3389093135048319,0.30141323898101335,0.3011052947628027,0.2949781850430304,0.3020404374066838,0.31066301773779903,0.3063293194628356,0.34183249232590107,0.2923146226138716,0.3002685896592828,0.3022958469917951,0.2927824442332748,0.2907191468574493,0.2997542181088485,0.28532309626167873,0.2961378850319905,0.29233045821918513,0.29617721003872177,0.3484969988721422,0.2947817764708011,0.295513863267563,0.30076847384287,0.29552188023080467,0.30145923304318883,0.3039981615715161,0.3057162686374203,0.300781756747894,0.28938461431327134,0.29967557607749284,0.2940449379757696,0.2911797106612275,0.31468236819241013,0.3187135746929994,0.3138703250406215,0.3220282012437036,0.2876084262391163,0.31970458582179245,0.2964652744099504,0.3098471876741604,0.30625502746658523,0.30305439341956586,0.29106425325176033,0.2962653658898025,0.3152150329207182,0.3236610774072583,0.311563828410684,0.32282626967927924,0.2946794325001462,0.30041012773906633,0.29810021253941177,0.28748163957884243,0.3065563060765795,0.2957359749553588,0.2889496741082004,0.31654720855828455,0.3924942784805155,0.29579253935361377,0.29102198231518683,0.29874480698668193,0.307766918335559,0.29824219119544804,0.30366561509820783,0.2942581277938932,0.2960164996160788,0.28502894493364034,0.298255938537169,0.29766402166194633,0.29095927847835845,0.32434973288488284,0.30108548794408546,0.3026638894844751,0.3081021323095652,0.30576080258598853,0.30843870204155155,0.2915423673557006,0.300859268951444,0.31708821166481077,0.3187013499624637,0.34224842942244005,0.28468391768871026,0.29417154421488206,0.2907668901853915,0.2961501529106628,0.37407978062912817,0.3012358302348569,0.3036954766977086,0.33422911486007745,0.29118933557873583,0.30042623428607246,0.2910980686876273,0.2937913463279685,0.2935403329423663,0.3081859530579341,0.30976679976429594,0.30367909452207653,0.2974570848696489,0.3209874149935527,0.2959502240866029,0.30077404278861,0.2949288222238545,0.30005625037411693,0.31789056628536927,0.3161242043432212,0.31066156507857823,0.3227998875779773,0.31348850108550297,0.30521995220605913,0.29495522311776035,0.2936226938939332,0.3193164656199342,0.30916182183383734,0.3062899228332498,0.28975073104685445,0.32332069606401176,0.30536685868741903,0.29870661089218536,0.29244434623970644,0.32974242836112455,0.3012596111397295,0.3301740151002816,0.3152907836165837,0.3019969831988429,0.30361729709805113,0.2897618294943979,0.28735312038743377,0.31023510895645307,0.304965534516899,0.2876775885274868,0.29721420455560593,0.31651312448896407,0.2928584254432097,0.30675709593293987,0.33399227579749385,0.28842498373051206,0.29124675389414995,0.3014288772234264,0.3515705743777262,0.29351683252657634,0.2975419815242354,0.29384263902082586,0.3193926302900387,0.2910305567646756,0.290926479678239,0.28722761865536517,0.301915674105005,0.29243049216258704,0.29243027184420445,0.32131013210921355,0.2913867223550412,0.3060369245635467,0.29267922120408285,0.2895028704690735,0.3015127828391777,0.28683470791359034,0.31945296947219637,0.3303053785560789,0.3030229402538435,0.30513311408892796,0.31763631746668,0.2991745269235391,0.3060112748875517,0.28693001035332333,0.30277172877747255,0.3247164710004332,0.3152903662661963,0.2972144974696357,0.31842846136970443,0.3002295080126053,0.29651870243404316,0.3019019061201013,0.30680114939766867,0.3036454925146454,0.33683548292599214,0.3089424359236014,0.30189785396556656,0.3076029360897714,0.2953216229740864,0.2948300983199966,0.3163101840207596,0.3028705961355386,0.2869561017653267,0.3502170321994789,0.30231463537901704,0.29883469522370454,0.3168436219696475,0.29724795427783834,0.3056219997668621,0.2996986884258813,0.3017421940202552,0.30015843051767827,0.31371073743271083,0.30549516487446643,0.3079989328900349,0.2893028062226775,0.3075559788618402,0.2965294251497158
10,0.29966523109280196,0.3010284441598841,0.313330166551263,0.32217434062216166,0.29295405771930255,0.31550549473484557,0.3086610774602169,0.3224302350302983,0.30324544487884053,0.30266312689846187,0.31685274091977705,0.32511499006788336,0.3199656371066076,0.288693230984126,0.301480941348879,0.3037424676353075,0.30189315015227014,0.29142735978520407,0.28993018113913394,0.31962320971910446,0.30928774365742945,0.29336100588625247,0.28801325226054286,0.3074012393084579,0.3216253127374302,0.3138067503908474,0.30848291625860014,0.3075249503831,0.3039191714882491,0.33967975434248,0.29869832522983375,0.3131397268320716,0.3023895123810198,0.2940868777157345,0.3158596887450606,0.28941425690540534,0.30652166758226856,0.2961176543022953,0.29882254367956723,0.2901390913214914,0.2953112574988796,0.30896268848094083,0.3241970480458019,0.2871975873596738,0.295743385994106,0.3245470109417449,0.31064017561445795,0.29321720303980536,0.2998035548327499,0.3090148773927338,0.2900981328164892,0.29929403823718526,0.2915644118225803,0.3096028567393705,0.30695675148580404,0.29915461821159495,0.312395015807687,0.30936943771153824,0.30766419982066745,0.3070960420665691,0.30159883180822655,0.29433200427174266,0.30311238575737426,0.2996713839928603,0.2873608449901031,0.3015519393760352,0.29929367476648105,0.30169377665327046,0.29871358681810023,0.2945622611364237,0.2933915194693011,0.2897193118274927,0.3003435308441813,0.30142778998683645,0.31044368191360316,0.2963292296001171,0.3193109524644673,0.2886691711377384,0.3183522090305112,0.3173115998229328,0.3205350233275611,0.2916148112680969,0.28712294602640187,0.29594080638130055,0.3089103158414029,0.31124913346246913,0.29630013028291047,0.29556889328378977,0.29381515583608203,0.29380465088020796,0.2876304187416469,0.3095676931817996,0.2945795770976686,0.29411757982902054,0.30261445534025383,0.31463656089428643,0.30445046339249393,0.32174069116718296,0.3406583387675004,0.30782845107623213,0.30007263193689754,0.3000994078686702,0.29463009903488135,0.28965844585116807,0.32056255478032103,0.28723291074687285,0.29744770948880167,0.2894883810513357,0.3020681530443602,0.3207204518491383,0.29400139583858886,0.2923648312835593,0.33217298673704543,0.32059880872393376,0.3186427844913284,0.3083522095773329,0.29095582246816426,0.3244219692685424,0.2943625622975542,0.31570113955659374,0.29221401760350607,0.3076557521279875,0.2903094403857647,0.32400555174783674,0.29388481013583023,0.3062952437498656,0.2998330332723412,0.29799490168752735,0.29905252526936366,0.3037303254363887,0.327152388639285,0.3159394483175303,0.3218382089536508,0.3041243776826386,0.32316744788932683,0.3003046017258374,0.30388416663299256,0.2937024040857791,0.30379929227198016,0.2905134419806218,0.30920835019152904,0.299510105036397,0.2901057354744458,0.3121924425841354,0.2925655798453656,0.30035188168710114,0.3016105268502856,0.31646111462943216,0.3186581383546937,0.32115098772990314,0.2863023873102225,0.31334646397886945,0.31273102288059884,0.29906415124381475,0.2978102342112055,0.29002357481586893,0.30966460786907063,0.295920748592236,0.2972230856097561,0.3203416047143724,0.28828489225535125,0.2935550743939882,0.3000561566239063,0.3063602387343776,0.3222384560088148,0.29460591456788404,0.32217242285800507,0.2970116378346502,0.3218624276038435,0.3160284611050864,0.3192227129726237,0.28375783006254607,0.3116412228017743,0.33000618004023813,0.31469806999394156,0.30742636294870734,0.3171258438915642,0.3275988874849948,0.3038729174181238,0.328071523857869,0.29514832402175845,0.2925701176922556,0.2975355820900016,0.2969412259254537,0.2922232457214907,0.31030338571412663,0.30578645763266077,0.31007209751844134,0.2936197000300129,0.30910053531259896,0.30472124552808977,0.31160921028041827,0.29765094476213105,0.2926397071387976,0.29072567934913107,0.3053250947828929,0.3115488859560183,0.2903502845700031,0.2921204987092234,0.30282007752975076,0.32002210359320726,0.30088015403135576,0.2924319287936104,0.29050679454109296,0.3036479174498496,0.2869174688758969,0.29704317780418427,0.30701858213535355,0.3019008753125779,0.29684059060182666,0.3309458909079977,0.2971183185983756,0.31032109476484465,0.29935604143285033,0.3033821082009654,0.30791272968162164,0.3096002014347011,0.3354175007324885,0.3166169630663572,0.29623889923617164,0.2963614270374081,0.3142478026407505,0.30114970891577414,0.2982740733587659,0.296772458918095,0.30876737031834367,0.29698493543033055,0.2947652206717916,0.28980589004058266,0.2841817530806251,0.3060958105408954,0.29506119162963074,0.3047812094132886,0.30412737907217063,0.30103536140986437,0.301093678769615,0.28326997763377915,0.3180449676286345,0.30929580572161924,0.2887641984486161,0.29148109237084247,0.3086048989581113,0.29796357514867367,0.28899190733784563,0.3308193887104921,0.30528966468694213,0.2914183247304038,0.30307492395517366,0.2942555201973124,0.29133113814564743,0.3450856970687958,0.2991137470326831,0.31221531937019004,0.29189898623932864,0.2989316381520791,0.3352880206010299,0.29423164406596525,0.2887632624776654,0.3044718814905433,0.30235560786971455,0.3464385445895086,0.3083871335803562,0.29751685832178804,0.3068595127475796,0.34681566922380674,0.3008336407846552,0.2997038139589366,0.29448744349977396,0.2983693726969264,0.29795832502048836,0.28954334379963886,0.29442230129179636,0.34082232156075776,0.28967844197062526,0.30444112479449936,0.28664945743837045,0.2982868592585225,0.31459866417170174,0.28832654849589895,0.3120638861982842,0.2971513531385296,0.29613892578262324,0.3488067590606434,0.2943338846437273,0.30649480055302974,0.31624188319245927,0.32019850744209133,0.29457413827165324,0.2962323660790721,0.30167871198599094,0.3088237954740693,0.3040976626010209,0.3473811408480567,0.30634009255832256,0.33877148224805814,0.30616276493046607,0.305681206678652,0.2945781271615133,0.3084936095289288,0.3276891621965791,0.34857334978951593,0.2959164714629019,0.3034937146028451,0.3299233539182702,0.3051998654129463,0.2978785946774935,0.30181849169632263,0.29712782511091956,0.2967792773837239,0.3149536735491193,0.30459716993325425,0.3022276297867371,0.2951000729824351,0.3052138091949201,0.3050591525408642,0.29706312971792465,0.2972685741864255,0.3282161593483141,0.29412433396368715,0.3114667577392892,0.3016540517358973,0.29420940131546425,0.31667810954681097,0.2928033528433341,0.2959898610591286,0.29098375001180665,0.34370608566189587,0.28990529637767354,0.2953812837036997,0.2999588532280172,0.29886014743926664,0.28940879586549084,0.3026224152018007,0.31170730663788027,0.2955668538714099,0.3154012523466662,0.29738592410080633,0.31307691709895324,0.3045615623204978,0.28915919252035305,0.2968177474151078,0.29315514805802295,0.30798047559730163,0.2997072890751723,0.33351320785994754,0.2973559857352203,0.29248824940690127,0.3188712594840698,0.309402260019199,0.3103816090337375,0.34219988723463846,0.30484193500716505,0.29543200642403944,0.29030579931277234,0.3063821770047388,0.3118373475271198,0.2921388454919318,0.31183239640235305,0.3060535409534112,0.37545243480237683,0.3165216804086618,0.3172043289023405,0.29218596795732227,0.29006912645394206,0.29237499717598636,0.3229200520691879,0.28642993469223044,0.29628443440713104,0.2978620890403666,0.2935261815241565,0.30158970844861344,0.2882708700204539,0.292118562064791,0.3103888573277834,0.307337910306333,0.31276275846662666,0.3141877494368872,0.31524544012747757,0.3322042092197036,0.29400816878816005,0.30495706524086746,0.40548866719365745,0.3211084715035196,0.296986471369746,0.2888700247393893,0.31595421870370677,0.30561338401205596,0.3418893377930023,0.31214430626429934,0.29103745224351746,0.32958552489317056,0.2861489167054025,0.2927740833591497,0.3091323331442001,0.293296034084354,0.29895780585027426,0.31975898642346284,0.31239107485318124,0.30908319591790717,0.3175388653999475,0.2953325274060227,0.2991895482591058,0.2964010927916994,0.2847514820697256,0.2876049508738671,0.31073898680409007,0.28952044596349474,0.30409046478793256,0.31303729750098985,0.30856727849881854,0.3007576284304271,0.29570319640274695,0.3049055263656054,0.3027944912701833,0.2892981347946868,0.31322683377827476,0.29518005338933284,0.29144223602370867,0.2886884940994011,0.29988191737352843,0.2899974577203617,0.33023943699966496,0.31915422403832727,0.2978925231671983,0.30316087638022066,0.3025373464485566,0.30328761321334535,0.2947578848767476,0.30458685147964376,0.29817157636351643,0.30054497674201347,0.303201094242074,0.3119337227567097,0.33723410131617554,0.29001407752447583,0.2926956172839036,0.32834284089386373,0.2878497731348636,0.29567055641449175,0.34550113181851533,0.36150522147149783,0.3149817276147123,0.31295210236482063,0.2986059870988049,0.3182519867934869,0.29793164866292415,0.3014519538879116,0.29448254546079516,0.2906167465543451,0.2861615864870877,0.2905681829125083,0.33172950373858606,0.2928642831955191,0.3023004049083353,0.29464803584691557,0.2943679226051045,0.28949969451016017,0.3117208916873434,0.3148877132562068,0.3103379417948874,0.2889309520867901,0.30234201041962,0.3074137350952303,0.32886620113822423,0.3118768880659363,0.2894656918729974,0.30895470551040294,0.30201191701578334,0.3069954644155752,0.29612668863627634,0.29084382235782413,0.29615600821310495,0.2937824144871043,0.31558870240904313,0.30893703218203794,0.2982794583879847,0.32223326682888886,0.3107220467263865,0.329304910831461,0.3097028392361418,0.3169932355116794,0.29051159796303155,0.3010382903646323,0.29547946459542,0.2887034436551941,0.3252337248993725,0.2987586340758176,0.2926410762951126,0.3362895615479863,0.3014707468287012,0.3023879006054283,0.29688637810166046,0.30388213068350706,0.2983629797382501,0.3044258761843123,0.3026339612134912,0.31282289703211597,0.2998833503712933,0.29999179225221295,0.2907965674077625
