t,rep_0,rep_1,rep_2,rep_3,rep_4,rep_5,rep_6,rep_7,rep_8,rep_9,rep_10,rep_11,rep_12,rep_13,rep_14,rep_15,rep_16,rep_17,rep_18,rep_19,rep_20,rep_21,rep_22,rep_23,rep_24,rep_25,rep_26,rep_27,rep_28,rep_29,rep_30,rep_31,rep_32,rep_33,rep_34,rep_35,rep_36,rep_37,rep_38,rep_39,rep_40,rep_41,rep_42,rep_43,rep_44,rep_45,rep_46,rep_47,rep_48,rep_49,rep_50,rep_51,rep_52,rep_53,rep_54,rep_55,rep_56,rep_57,rep_58,rep_59,rep_60,rep_61,rep_62,rep_63,rep_64,rep_65,rep_66,rep_67,rep_68,rep_69,rep_70,rep_71,rep_72,rep_73,rep_74,rep_75,rep_76,rep_77,rep_78,rep_79,rep_80,rep_81,rep_82,rep_83,rep_84,rep_85,rep_86,rep_87,rep_88,rep_89,rep_90,rep_91,rep_92,rep_93,rep_94,rep_95,rep_96,rep_97,rep_98,rep_99,rep_100,rep_101,rep_102,rep_103,rep_104,rep_105,rep_106,rep_107,rep_108,rep_109,rep_110,rep_111,rep_112,rep_113,rep_114,rep_115,rep_116,rep_117,rep_118,rep_119,rep_120,rep_121,rep_122,rep_123,rep_124,rep_125,rep_126,rep_127,rep_128,rep_129,rep_130,rep_131,rep_132,rep_133,rep_134,rep_135,rep_136,rep_137,rep_138,rep_139,rep_140,rep_141,rep_142,rep_143,rep_144,rep_145,rep_146,rep_147,rep_148,rep_149,rep_150,rep_151,rep_152,rep_153,rep_154,rep_155,rep_156,rep_157,rep_158,rep_159,rep_160,rep_161,rep_162,rep_163,rep_164,rep_165,rep_166,rep_167,rep_168,rep_169,rep_170,rep_171,rep_172,rep_173,rep_174,rep_175,rep_176,rep_177,rep_178,rep_179,rep_180,rep_181,rep_182,rep_183,rep_184,rep_185,rep_186,rep_187,rep_188,rep_189,rep_190,rep_191,rep_192,rep_193,rep_194,rep_195,rep_196,rep_197,rep_198,rep_199,rep_200,rep_201,rep_202,rep_203,rep_204,rep_205,rep_206,rep_207,rep_208,rep_209,rep_210,rep_211,rep_212,rep_213,rep_214,rep_215,rep_216,rep_217,rep_218,rep_219,rep_220,rep_221,rep_222,rep_223,rep_224,rep_225,rep_226,rep_227,rep_228,rep_229,rep_230,rep_231,rep_232,rep_233,rep_234,rep_235,rep_236,rep_237,rep_238,rep_239,rep_240,rep_241,rep_242,rep_243,rep_244,rep_245,rep_246,rep_247,rep_248,rep_249,rep_250,rep_251,rep_252,rep_253,rep_254,rep_255,rep_256,rep_257,rep_258,rep_259,rep_260,rep_261,rep_262,rep_263,rep_264,rep_265,rep_266,rep_267,rep_268,rep_269,rep_270,rep_271,rep_272,rep_273,rep_274,rep_275,rep_276,rep_277,rep_278,rep_279,rep_280,rep_281,rep_282,rep_283,rep_284,rep_285,rep_286,rep_287,rep_288,rep_289,rep_290,rep_291,rep_292,rep_293,rep_294,rep_295,rep_296,rep_297,rep_298,rep_299,rep_300,rep_301,rep_302,rep_303,rep_304,rep_305,rep_306,rep_307,rep_308,rep_309,rep_310,rep_311,rep_312,rep_313,rep_314,rep_315,rep_316,rep_317,rep_318,rep_319,rep_320,rep_321,rep_322,rep_323,rep_324,rep_325,rep_326,rep_327,rep_328,rep_329,rep_330,rep_331,rep_332,rep_333,rep_334,rep_335,rep_336,rep_337,rep_338,rep_339,rep_340,rep_341,rep_342,rep_343,rep_344,rep_345,rep_346,rep_347,rep_348,rep_349,rep_350,rep_351,rep_352,rep_353,rep_354,rep_355,rep_356,rep_357,rep_358,rep_359,rep_360,rep_361,rep_362,rep_363,rep_364,rep_365,rep_366,rep_367,rep_368,rep_369,rep_370,rep_371,rep_372,rep_373,rep_374,rep_375,rep_376,rep_377,rep_378,rep_379,rep_380,rep_381,rep_382,rep_383,rep_384,rep_385,rep_386,rep_387,rep_388,rep_389,rep_390,rep_391,rep_392,rep_393,rep_394,rep_395,rep_396,rep_397,rep_398,rep_399,rep_400,rep_401,rep_402,rep_403,rep_404,rep_405,rep_406,rep_407,rep_408,rep_409,rep_410,rep_411,rep_412,rep_413,rep_414,rep_415,rep_416,rep_417,rep_418,rep_419,rep_420,rep_421,rep_422,rep_423,rep_424,rep_425,rep_426,rep_427,rep_428,rep_429,rep_430,rep_431,rep_432,rep_433,rep_434,rep_435,rep_436,rep_437,rep_438,rep_439,rep_440,rep_441,rep_442,rep_443,rep_444,rep_445,rep_446,rep_447,rep_448,rep_449,rep_450,rep_451,rep_452,rep_453,rep_454,rep_455,rep_456,rep_457,rep_458,rep_459,rep_460,rep_461,rep_462,rep_463,rep_464,rep_465,rep_466,rep_467,rep_468,rep_469,rep_470,rep_471,rep_472,rep_473,rep_474,rep_475,rep_476,rep_477,rep_478,rep_479,rep_480,rep_481,rep_482,rep_483,rep_484,rep_485,rep_486,rep_487,rep_488,rep_489,rep_490,rep_491,rep_492,rep_493,rep_494,rep_495,rep_496,rep_497,rep_498,rep_499
0,0.3164640637317886,0.3297011815619778,0.32126286004462523,0.3150571621992285,0.323689419475487,0.32992588458948496,0.31797548215719357,0.29757457173801327,0.32133433583935245,0.3578338382090352,0.3228159950138947,0.3077522968399717,0.3497737211782135,0.32391005029491027,0.3193739239055623,0.3357837298875931,0.3285000834016822,0.30340472500601534,0.32050297813823214,0.3118608000305429,0.37283784715627627,0.33110030408727653,0.3221191829281422,0.31829948474585146,0.29759218341547994,0.3524187501765776,0.3124326013308539,0.3269710619105243,0.30537573797945666,0.32212710597432204,0.3199602120018006,0.34502421075461454,0.32064014263567786,0.34681535210395975,0.38704370869989196,0.3163883173725126,0.3176288377748736,0.3124505620595006,0.3349619413911686,0.3723800801580124,0.3227994105145812,0.31048261920843406,0.3850476605178023,0.3214372230182695,0.2995279273872876,0.3642503575673775,0.4147170942909767,0.3454067629259424,0.3087421804980642,0.305045094140849,0.32615599388469196,0.3269631649809967,0.35828166074988543,0.3651897310959565,0.31341223935709583,0.3413396775454006,0.3042590674889092,0.3043944858006841,0.2980456955936347,0.31055736417140645,0.3382466149474798,0.3250037516845316,0.3820920113025445,0.3110925671087355,0.3614614770258962,0.31428513660121216,0.34469972421215855,0.34487632451058803,0.3002911767575064,0.3183125610175742,0.31226068535438684,0.37273032934452066,0.3128964569300802,0.3566469960822226,0.300990464304577,0.32208945633821934,0.32949789975141985,0.32869261733260097,0.3262247575390286,0.31154059256833555,0.3139169199758315,0.32899032599417677,0.3380310410460762,0.30943506992819136,0.3100390312365767,0.3429433635519726,0.33695623522055274,0.3029776792985145,0.3124011422612747,0.32091534135614064,0.32862591190860896,0.3378971633410629,0.31845830139004455,0.35352141173920576,0.3567348611473597,0.31656883831957344,0.33077188507439464,0.3511867688738642,0.3155032481793256,0.33999191523023187,0.3748796344303952,0.3152196247668356,0.3125778272832815,0.33930649482431524,0.32175426460247847,0.385825658599217,0.34066480726715365,0.3163179238822537,0.3298887901612746,0.3244646374814987,0.33456470537434185,0.33239247357691903,0.3376577141371022,0.33685028576071974,0.33274200888376476,0.3543709697635694,0.31133089202463227,0.35219429278972875,0.3103780023324494,0.33884822257414304,0.3163960992735183,0.3383351935448059,0.3289429020284849,0.3479941222251074,0.35840773170777385,0.3379723305035299,0.3384867906014534,0.3494681994182684,0.3533337654047027,0.3076407029478255,0.32184966347451494,0.3401830382700462,0.3554782324974936,0.316867947757898,0.33660794890256024,0.31195903769043765,0.34175977339780117,0.33394894279380055,0.30880367619494714,0.35250943401693924,0.36298689470554957,0.3234499937540313,0.3089976015954733,0.334961441861058,0.3366441727630972,0.3200360174475184,0.3450920167932375,0.30910253298867585,0.3218543392385051,0.3185878594636965,0.3300700082006755,0.3163777712264296,0.2969165113611099,0.31588288151857713,0.358696384371479,0.36371659531136474,0.318101392827859,0.32298141026864247,0.33134065088221054,0.3104511091567148,0.3377078532577633,0.3285828845090425,0.32340835951069596,0.3312619358829146,0.3701995882991669,0.34262806307058713,0.3377545544047579,0.30546841584237666,0.300772642878517,0.305617921675425,0.33623797392013716,0.2966238790730896,0.31799365826237846,0.35659747460945185,0.33495898276205366,0.3529218355514264,0.32542466650881385,0.3948496639399879,0.3361725408754088,0.342119030143085,0.333991095091566,0.3231714911875878,0.3129779038272571,0.3394744336965387,0.3115394874612133,0.33192620694981484,0.36790943462201015,0.30008658690495355,0.31754607637065335,0.31539894644784094,0.3328990193314955,0.3205063440192278,0.33097328573064827,0.3030980268031667,0.3351342567019374,0.3187290199212467,0.32991384656980444,0.3271808112902514,0.31198467218399084,0.3662315546549141,0.3089621993182421,0.3254937735842165,0.32308764080992325,0.3154861681834192,0.3420052860666253,0.31761545017533094,0.3031998789305489,0.3265198339199247,0.3486299620361061,0.3113253573079552,0.33707789261841914,0.31403266784640044,0.33651817068767437,0.3349569185658473,0.3297353598450733,0.33089479052245674,0.30190327879308937,0.3415274502389333,0.33886009692235985,0.30583826625117794,0.3462487013999694,0.3097541645397003,0.2971028755892696,0.31611325298187787,0.3302906002255807,0.32025318837178085,0.415744568376274,0.33964145194842815,0.3197041399434205,0.3427200359257986,0.3430991557516041,0.32003977888048285,0.3113329634497451,0.3251167081812013,0.3418368785031907,0.29954685556084004,0.31342687503983896,0.3215295849818126,0.3589442418527177,0.3481406968503324,0.3851280703493013,0.32091955585535303,0.3385058602993212,0.3170116780057227,0.30473124134947654,0.318154119057097,0.31870757927171245,0.33121747814974,0.3332326258516397,0.3149418631844604,0.3294362480472624,0.3569031737383667,0.31767302451307833,0.30048105857473995,0.34294305492375726,0.31281127178221313,0.33387625323435594,0.3312376972313334,0.32736396565793113,0.314426435468708,0.3168662273530572,0.3081742135569105,0.3275638619384197,0.32517743899482654,0.34994208771951135,0.39557711643685683,0.3178556804131475,0.349049256050631,0.29511535825408863,0.33404184397422226,0.3236184524801578,0.3164520896381562,0.3247631731972535,0.3073212495975132,0.3032848215802259,0.3134222495469977,0.3125117609960385,0.3656706576111598,0.34045708742482955,0.40145810215223127,0.34931432515990235,0.31050337735512124,0.3107735319551853,0.3320662691647102,0.3189457177189646,0.3250814229488833,0.3157557582779782,0.3231665966772938,0.3182480886683402,0.31613181520705635,0.33254291816218984,0.32020853127492127,0.32318040383568747,0.30243048715321297,0.3482985618373525,0.31211409348670105,0.3128476307721445,0.30687560082472365,0.33891469369742844,0.3342258761826595,0.30864251394884845,0.32851278836132985,0.3096592729654929,0.3140857080857013,0.360500159235168,0.37435083697494403,0.3154576017775099,0.32701103782717467,0.3498582735652823,0.3487757637855597,0.3178177101241669,0.3264906901156845,0.30476487253039497,0.340730577756126,0.33776241452498607,0.33776300097447043,0.3256569044337123,0.3243883504508346,0.3213871079769102,0.3239777849127376,0.3414591584791115,0.3429509826127868,0.3658934890761253,0.31562905516693607,0.31353906984635355,0.31502053469164026,0.34926905983521045,0.3159549190607181,0.3160646458913499,0.31792867497750843,0.32942698994220676,0.33055372995324644,0.3276637896661324,0.3045161094911626,0.3055634052849198,0.33134006386344095,0.3322370473819125,0.31921657526809044,0.31291942511476245,0.32979410574520884,0.36818003247215303,0.3784913616877066,0.36848718555822374,0.30939442187618876,0.34873742195391266,0.345971283212585,0.4078674218921573,0.32632878614675875,0.31057923737785653,0.32302843948108667,0.3239765504668171,0.33812524040999503,0.3103699056328136,0.34487779168477484,0.31846382771040543,0.30736456970674725,0.3216710918852047,0.34620473811721264,0.3196807418660318,0.38220605851068884,0.3347196358937955,0.3152555433809325,0.31366488235933987,0.3179702629171522,0.33073484849222706,0.31509078069949037,0.33078097437659915,0.32298304009889717,0.33001380367941197,0.32147147547054106,0.30930270726993536,0.3210563201283999,0.3419212189816078,0.31020274863848524,0.3576467570225453,0.3089464427674987,0.37351614688496276,0.34544970721677726,0.32608179211051874,0.3262262346259352,0.36496429324373614,0.3215769101451848,0.33526388998461837,0.31161339235440266,0.31517848855425523,0.30998360474662945,0.335028849403484,0.32686178974333874,0.32511405815072447,0.30550493941787066,0.3406465835403135,0.38984464235732946,0.3129086136145057,0.3168217868892159,0.3560790381064362,0.3441676571593117,0.3149367632033648,0.3311430317876703,0.3314923940958693,0.3219337569583597,0.32270876479484883,0.30099652817580713,0.3221378848533999,0.32928765863418036,0.32720958027701175,0.3234873589260374,0.30495643376139775,0.3104012430242038,0.32205497169015634,0.32227595410463994,0.32096154881739564,0.3088223412039751,0.3282291707900578,0.32545315869022096,0.3603735913461938,0.3124996772274735,0.3133411931383247,0.33312396574911907,0.3015758683891224,0.32052276936343477,0.3435883098951916,0.33109184467652353,0.323304125053755,0.3220825394868149,0.3091194552791573,0.32474640143891975,0.32669311053268435,0.3354036601930458,0.34680877494703105,0.32272596221001215,0.3415533044823943,0.31270385074571727,0.3184107236518986,0.2940806532363285,0.3174782906992634,0.32714545477997375,0.3327633109822143,0.34489288238596133,0.33591895090494117,0.3136832651722929,0.3054921139051449,0.32759672128776085,0.35269063619094565,0.3272811052492493,0.35046908468597515,0.31036894170187757,0.34573938323629655,0.3055593491035096,0.3165586637984134,0.326955838506616,0.3245140468431185,0.38971214847382746,0.33600673077556864,0.3785678584020746,0.3203294970610717,0.32955326763117754,0.3041807507227493,0.305543599065246,0.3204908024007386,0.31452137547293463,0.3231487459906822,0.33652132776881843,0.31942192267878133,0.3610661603725972,0.34874939961794876,0.302972794324342,0.32006113733946284,0.3109702355700362,0.3109539261679811,0.3440172642762047,0.37216862569804326,0.310192217542253,0.32923395670625577,0.345955429352913,0.30349603385786084,0.3500222104644922,0.34465294071990765,0.3789490455286232,0.3380688036924989,0.3081889952931489,0.311704899054115,0.3044737288104038,0.2936735883264221,0.3302044571076019,0.32303476411635623,0.305680070734142,0.33863922721509415,0.33113406507431214,0.3360141490170884,0.33398996904279354,0.3438130907900022,0.38533160439494674,0.31269826807078244,0.31830491052176557,0.3165142615154199,0.340622726350523,0.3191778629028329,0.3202277098979888,0.3045606945407735,0.33589665409994474
1,0.31853602087641675,0.31255994470222453,0.3093104987763811,0.32402334176697806,0.31982799668110057,0.30978862728992596,0.3070896517605625,0.29554813776731353,0.30387080303586866,0.34776907539042723,0.3225416406744544,0.32977639905579903,0.3455165976840814,0.3644372720475088,0.35797715395983454,0.3232900627161307,0.32590945033352775,0.3637873154309225,0.33438338322456046,0.3467619493599211,0.32398915958740626,0.3517457838545908,0.3402037980185125,0.33177525128061436,0.32040968119155916,0.3232887695900005,0.33063103452907044,0.33566008352812016,0.3240181062852868,0.3004014150576849,0.32559242430339913,0.3207322924865356,0.35054807460829346,0.3108972975767082,0.3054200820605268,0.31640176479249194,0.376152059023378,0.31900653565194304,0.338246056863274,0.33560033202017253,0.3038596765377971,0.3041257477251065,0.3965744294535592,0.31637906471855104,0.3646453628148105,0.323074957580513,0.3279290493290735,0.3058086907141948,0.32235636134284784,0.34031791330202815,0.31240894413305526,0.3244068517513462,0.29964048690820094,0.33654047715760027,0.3253395239234259,0.3647859411766013,0.3563826213751006,0.3111163683277145,0.3244869523270747,0.34509600056949263,0.33716628462641707,0.3323756347473946,0.3159465105120086,0.31484484137160557,0.34842430546154385,0.33379380682954907,0.39005153272055315,0.3477803563600268,0.3184385971863491,0.3279361382191567,0.31800631355225223,0.3889023100291277,0.35448573740830136,0.34407499280723164,0.31128072254604666,0.3091833869913046,0.32872577638665973,0.3091231687345364,0.31325178493687705,0.31098519353455745,0.322812243062108,0.39837416914373014,0.33232649547796755,0.34644012428061643,0.3146728686308883,0.3136451477064376,0.34505691752163886,0.32513722917798893,0.3044670969707744,0.32354309050032404,0.3288362919330101,0.32428035025107693,0.3156670605038431,0.3071067379825063,0.31333045671420284,0.3204316695275878,0.39925156195610495,0.327952026610823,0.40014649886556375,0.34669860959070165,0.34619117953738743,0.3205058325880316,0.3328430499998542,0.34593167271418,0.3524826990793518,0.3302946943143587,0.33774130861627044,0.2946890854784534,0.38390048828669826,0.3496872375637488,0.332666572452765,0.3581646295021413,0.3107823674442126,0.32253236432379473,0.3430210511133356,0.3684354969766014,0.30077405231519355,0.33123384008775625,0.33449063484499614,0.3493048181977767,0.320655980754469,0.3347157396289069,0.3241200695180558,0.3585006946978767,0.3017532434574743,0.3168128410672529,0.3121450063113479,0.352122439654726,0.3308534091082293,0.3308887250304732,0.30289414867816244,0.3084425789814729,0.31772113605143437,0.3133801346127743,0.3351396166592383,0.30916110273786007,0.35871324835056484,0.30782472195770905,0.31663569842549283,0.3321601819942353,0.4187956255266118,0.34676221946008134,0.32002913971588026,0.3391226664514776,0.32423493358362887,0.32199286870620164,0.3087159226851539,0.3050894864300368,0.33517341736227646,0.3160383697775172,0.31556614966811647,0.3282142511053646,0.3183773748443454,0.3086254732412518,0.3254491143477777,0.3128195261504436,0.33225480371010263,0.30899636564980915,0.34480870945761904,0.30736520384037325,0.31107461323527824,0.31417090928241265,0.34076059657016494,0.40422514176361135,0.3674752751907671,0.33342746522785804,0.3278844549129038,0.3407123174851129,0.3201730980841314,0.34483221317783946,0.3378293691906471,0.3201228231896046,0.3201377459610407,0.3661213153946682,0.35237682523419567,0.3474706709035482,0.31321132495202775,0.318119333409205,0.3164207045569159,0.32370202141639715,0.33142511211946896,0.3063355089640486,0.3330529512670631,0.39015866144591393,0.356564004696879,0.31905758526608075,0.2954642181959394,0.30340819193539004,0.3033322718628842,0.3231310791613649,0.32650603356142366,0.3035128436376091,0.3291226373426313,0.2979696794687772,0.3082887832310317,0.3486832852006304,0.31834042912958915,0.3219307481550717,0.3154930020959021,0.37161241725143,0.3268505640885647,0.3325842176767482,0.3301630925534996,0.35639063034561774,0.33258862861767774,0.34968072569250175,0.31007110312600095,0.3475679192667484,0.3560547836620498,0.30833706839286507,0.3139334136173494,0.3257295878452237,0.3067754617077663,0.31723086452616595,0.34904725257173946,0.30984108382316,0.3065060616751042,0.3234556093943944,0.3473563418926413,0.3125921960249102,0.32581051209241496,0.3216929931864835,0.29951312264855867,0.32300582854147514,0.31386675390358015,0.3750823545575683,0.3224321250771353,0.31655325115426625,0.3250804157066821,0.3201410946547366,0.3761420148654972,0.34094253830115645,0.3149884691685646,0.3036416545859485,0.34349244555742997,0.32508019793130727,0.3321982587765825,0.3313521823499516,0.3884214447954659,0.3394850656430831,0.3554668496715959,0.35042397397496877,0.3095416212768007,0.3259275648840104,0.34317308503909033,0.3209435768954,0.31544865397420546,0.3186214262472477,0.34025770079739515,0.32799802788068233,0.36667905410218454,0.3493631921123509,0.30837673496456514,0.3144776666557533,0.30473343524228513,0.30544742939784114,0.34117373638685977,0.29972438770537235,0.3245812871061507,0.31189401805898365,0.3229494619483059,0.32394452106444604,0.38233651592323425,0.3440300302636329,0.3829639983638577,0.33108261370284314,0.3167893434123399,0.34548456731167454,0.3132506778888982,0.31055280122763107,0.363368624711666,0.316044782383535,0.31547068882885304,0.3404672712950322,0.31545877226819846,0.30077827916178584,0.34791874316476573,0.3075481666379364,0.32483302326324914,0.3557309122544915,0.32096260426719947,0.3382566070935283,0.40121260062199166,0.31531101364349856,0.3143322646651652,0.3190933375496397,0.3238434685533676,0.3713030822772127,0.30428258867650937,0.40374032613583194,0.3323462435764768,0.31341347008350373,0.30535604255689486,0.3320826389971895,0.34186398986226474,0.30879079187601216,0.3077436506375376,0.3261811337374574,0.3150084107565398,0.36003907201306373,0.30408467191886135,0.33353735358022163,0.306522560722004,0.3654892746666222,0.3602622986630375,0.3482751520033205,0.3301676372023507,0.31547780070251175,0.3358807337242323,0.36616616340567865,0.33555833738126073,0.31130028022680956,0.32274978307416685,0.30222226069376473,0.3669343878505924,0.33033724859466773,0.3274055279444025,0.3493273453639355,0.32210679898961025,0.3177456251599725,0.3517830119315447,0.36510163665460416,0.3273238285596678,0.31418506928195356,0.3098780582873637,0.3425882223523143,0.30864242183168566,0.3265174064363909,0.33310145387339196,0.30136814486469515,0.3768331924398946,0.3102187373358802,0.3540983095891107,0.3311060147615732,0.3121104486743186,0.3548696385235254,0.33112428644893,0.32939326116255424,0.3418781954758604,0.38265629728602446,0.3403866021978894,0.3401745068936769,0.32117554880247057,0.3217863453532445,0.3256911188221871,0.30050521542222997,0.3821233748327087,0.3836565096775893,0.32064750608209336,0.33318438786651855,0.30438860122666667,0.3680264451329639,0.31012593281479994,0.34869796847051593,0.31696763183866783,0.3140015660054682,0.3305624506756026,0.3326226354376919,0.3413219716420469,0.32034301696123124,0.32960523181928963,0.3366179964474639,0.3143823258967744,0.3039962398758257,0.3877722611101153,0.34853547269796575,0.3044989673199166,0.323249208080464,0.32779716816321636,0.32742286488910344,0.3207368047997436,0.3183626948983681,0.3673403331368603,0.3262788177654134,0.35839204557776444,0.3190851034022667,0.32910911701868906,0.3443849879110422,0.3400219369220089,0.3351116372638588,0.3566648144884595,0.29756159509941266,0.33255402175893745,0.30837488956980613,0.31729784162129593,0.3422965762191233,0.33240175039452324,0.3076807552606004,0.3201627515844743,0.32733268577288693,0.3327701408518797,0.35636970766251086,0.35290963852713486,0.34318765509571875,0.3027558768792094,0.35262321163734417,0.3255921198326023,0.3431334891459581,0.33301443476618264,0.328907212625105,0.31325637118964655,0.3264125710115068,0.3134146767009777,0.38792042871142496,0.3230090682140105,0.33291529357846783,0.3323947970301024,0.3030042794886397,0.3158087957106316,0.33249046746497035,0.33604507099999653,0.323813265615265,0.31057898598728845,0.32762871291731227,0.35395741806775655,0.34001695183881386,0.3293895190755735,0.32858823961637695,0.29766256554708265,0.32287861518095884,0.3704829876289624,0.3304367789492522,0.34206971222971017,0.3372036355181268,0.33794965827771184,0.30683273257327637,0.3511540951965657,0.32458677817098447,0.34244765386653675,0.3193385430838446,0.31492811585382763,0.3248655637400797,0.3421669137353778,0.32722898033987874,0.3125055410883685,0.317827273100402,0.34935848369260625,0.3211880412088445,0.34066255854258476,0.360220629678279,0.3123558776160739,0.3134031229791653,0.3023044747324624,0.33958659632070914,0.37131069354965823,0.3265477633359376,0.34002347426853907,0.37267649898138056,0.3270363650405844,0.32095695686314796,0.2998461513056097,0.32412575609604194,0.321683163913801,0.35006064710324714,0.30723965849964496,0.3264060095864517,0.359456899221967,0.3054572442661914,0.33479836133045304,0.333420303133526,0.35350949006525667,0.3517171281420251,0.3123072660416057,0.30305785181603084,0.3433773670578318,0.3658122388422843,0.3470140376346205,0.31682979020378577,0.30088876204572185,0.3624686286962714,0.35776526114896046,0.3327461465295337,0.35240599690627067,0.3059128778702166,0.31929559577363653,0.3194995714829906,0.3290107266758741,0.32390064853584244,0.3379777612990207,0.3018483648602302,0.2957227979602339,0.34070753858343983,0.3410413677712818,0.33695245011134295,0.3135729476305062,0.3305748423717503,0.34288335281044746,0.319535051628037,0.32065531060095465,0.3273481043235479,0.3126113033095053,0.3337951654289618,0.3053435125849485,0.31695030237054067,0.3019552874980745,0.3642908543091155,0.326209974763684,0.3595474136736071,0.29682657861698336,0.30458009071393566
2,0.33494771618282326,0.3492940445105417,0.38008155329831184,0.315534085791706,0.31257717606184715,0.3116886924348514,0.34902486322226445,0.31220274864767983,0.3306189550536617,0.3349321781775735,0.3361390547411019,0.3020107091568519,0.3312720037643785,0.37534240609735714,0.3303133785727295,0.32216403179745867,0.29921833447607665,0.33892592748049427,0.34787914590720825,0.3450016304823228,0.30738406651406547,0.3063819028664876,0.31294637528130176,0.33103457431593475,0.3104292006385256,0.31709889985536627,0.3202498434437199,0.3337867784094287,0.3359782947083534,0.3124827408749286,0.3140832989750241,0.32276916247529713,0.32356447796904864,0.32763661549581785,0.3299007852374855,0.3194308246392354,0.3205113384625608,0.32002348548987797,0.34080636052853863,0.3310259166359103,0.33353901802681685,0.31312176681907555,0.3289441367568401,0.3587253570566641,0.30590893885478315,0.36815203250091816,0.364162175805744,0.38020123750414336,0.3088081729480529,0.31873306739251983,0.315193184057483,0.33561037381305275,0.3094453860005676,0.33587679889111594,0.305647335371355,0.3419653668094666,0.2962491341491782,0.31465868116961315,0.3252577991870269,0.354238451831997,0.35395804017259624,0.333361981457646,0.33591055248440244,0.3100572543523345,0.38275089136945567,0.34731044442979464,0.3396462452150685,0.3593476608690998,0.3291581619442116,0.3152602325105621,0.3112533505603557,0.315112204955562,0.34785206377974953,0.31243853351237205,0.32541520303550875,0.3186778952179334,0.3221461081360089,0.3437480517900206,0.3147434309208393,0.3206449066232055,0.3119399944664554,0.3268995143207286,0.30016456300836036,0.3157674359068829,0.3511842965302571,0.32787541678264953,0.3346585130586198,0.3618062865306205,0.3206958978566189,0.31119527903428323,0.3410893346192578,0.364767786738107,0.3115515404179071,0.2962031123369577,0.3248870642705638,0.3447897261770775,0.3244152018157775,0.36430086529255473,0.3541958510648161,0.3498738282470074,0.3687263937078006,0.3361996642905618,0.2981066225581976,0.30826770755998406,0.3222206881336158,0.32051235742834094,0.35834425671484427,0.29970257199017697,0.39553124299873865,0.332437558942135,0.3089950655815227,0.331040632251256,0.325130615136095,0.3144227982125729,0.3136187971742083,0.3470178304891455,0.30526172711813615,0.31652903267182136,0.3462445288315933,0.31342414645408506,0.33364867745492555,0.3205121721034031,0.31904240867018846,0.3327572166297284,0.34559118258135707,0.3536217029917707,0.36607114142841357,0.3560633677268737,0.338185231736153,0.291436479687619,0.3222626919830092,0.34103085363943747,0.3066842525634929,0.3336483366643689,0.3150625765138957,0.30164647963433466,0.32386385750716284,0.34114564565626904,0.3681565468175209,0.3427813304468884,0.3360226155246244,0.3361441308518984,0.3352809843672192,0.3162570042633124,0.3424015394662489,0.3733064377376197,0.2957291774976184,0.33136370249366587,0.3296452288957409,0.3378831645719515,0.3440271289405836,0.30016897266193515,0.3082186844745611,0.328093511179142,0.31000860971015587,0.3542478522465455,0.32399766188604395,0.3160386864427423,0.30645201210991463,0.35010852230347106,0.29978770580995107,0.29676662100268353,0.32108704553120837,0.34712851747098883,0.3903336949006463,0.2991109077011137,0.3287652482016612,0.39603245705706375,0.32573114600038516,0.3212890310913069,0.3092414179993765,0.3191378275137235,0.31806073562482484,0.32797015903346516,0.32582744138519476,0.3349177660160632,0.3578534475406974,0.36371837946544766,0.32808144305533454,0.32212022018504893,0.34405710214218954,0.31261147314641985,0.3220299578854769,0.3410219472507978,0.32954282569146104,0.34150367782099117,0.3406744913843479,0.3327231958791816,0.34356865771396317,0.29649607316811044,0.31267028087286,0.3007471001043219,0.33863814887119703,0.311724599158384,0.314137062387124,0.3253851277733932,0.3298201748937575,0.3435780842852364,0.31921502902657556,0.3671185947488863,0.3339440855791333,0.34589863596391895,0.34793028518907454,0.3496130092402142,0.33833026480092154,0.31920666380034646,0.30608319915888027,0.30562029697152393,0.3475206612835097,0.29379528542695926,0.3268565869374359,0.3197620864721592,0.31650546292453174,0.3279615842454384,0.33550009482445986,0.34394415209629897,0.3106311659555507,0.34589192173807215,0.3300727523832762,0.32089109177475195,0.31971447004877873,0.324555963393063,0.3006944908728255,0.3294664027734891,0.3407638499065403,0.3788234805365177,0.33713021194470005,0.32350578784794093,0.3237962185707928,0.3313258653400323,0.3055483619134781,0.32261030788642464,0.3246200844669719,0.3271395046400111,0.3412048534665768,0.3089520614447391,0.3299081719732938,0.3973139235941039,0.3460320680042236,0.3121452042008274,0.3214461276443964,0.3523405109054601,0.3377911717187244,0.29677643402502246,0.3155978069076981,0.3200239982887358,0.3574481421383632,0.32908130077313974,0.31665632362964585,0.3198094057738369,0.3342170322277985,0.3144447336037625,0.3120489404151357,0.3210625192825539,0.31220550025229155,0.31694202984968245,0.34553076935649973,0.3303177094165052,0.30040870098419037,0.3559792475209659,0.3287806035609283,0.33342398052384226,0.3606930082112371,0.3229228378675452,0.3515638180263139,0.3254349823954635,0.34147077353342475,0.3648021194584631,0.3046751960014268,0.3340093957038221,0.361230985099952,0.3469464850375065,0.3134681732521346,0.3712069253279301,0.3008170953816825,0.3254714458728948,0.33740043853212165,0.31124417073054766,0.3656056567369719,0.32660487243819813,0.32066490740671166,0.336436513160983,0.31972924474463704,0.3517936694084909,0.31380585482709833,0.318550006576896,0.3263388365502167,0.32074386545961053,0.30392982682013325,0.3599204600284743,0.33360537682034097,0.33872537106598516,0.3116898333773539,0.33208673105486886,0.33010091502126176,0.3513896008212739,0.31702866932227,0.32585645675048475,0.3037912816662343,0.3343219630404046,0.3056637086555385,0.3337290667240838,0.32129153412317024,0.37333419624194847,0.34786381320642185,0.3589922904798208,0.30310738658880415,0.3104032644582698,0.3419235087556991,0.3273559342430633,0.32401948551489157,0.33684299273233564,0.30577724712695625,0.31307085143781754,0.31930260133293514,0.32008584490010683,0.3431740314693599,0.3686472739394967,0.3163174214717325,0.3309133477682731,0.37307223839383263,0.34135494677641226,0.31818077817140705,0.32939052090267806,0.36291405795353365,0.32322214616498396,0.33480468889226345,0.3079418732921808,0.313074676171774,0.34552741789697716,0.37917262039876953,0.30831697900195965,0.3547338639200076,0.31783686523906696,0.31795900497522867,0.30836177485749633,0.34534145423867846,0.32568343596461474,0.3439910553706521,0.3898184692014431,0.33224460366215414,0.3046473662801013,0.363449976506015,0.3350207971223079,0.31791223445509015,0.316411147520304,0.40224330325505786,0.32980863230961266,0.3310536589981813,0.3243540858259449,0.3425662449377379,0.34411824071146924,0.32166177611884644,0.4185038748706667,0.32264311323682826,0.31486269066792555,0.3433714562484288,0.3131993729782747,0.3304028075618163,0.3170446416783998,0.3527372641239249,0.3502540572050702,0.3218081017035938,0.3200513084602474,0.31800578036819177,0.31296802086708647,0.3476718389095233,0.293699377127408,0.3241651763224916,0.3209671291157772,0.31012040545998604,0.32346128034797217,0.3730068441067083,0.341339372168476,0.316396027221242,0.3143689606448867,0.32557913810861655,0.34156752578109884,0.3263687533806037,0.3429139083441447,0.3140821518347924,0.3036144851946455,0.31120170804447256,0.3238382453480939,0.3282138671110321,0.3674516906275986,0.34804290744949606,0.29997703180522456,0.3632985411902559,0.31777058418766485,0.3187238736965365,0.3076397679115547,0.32088190054494575,0.3092278658927439,0.32208357314939035,0.3719887973413658,0.308614495211256,0.36573890028025463,0.31184330852537634,0.3143735402738487,0.3167288063640727,0.32406535439711937,0.3304447060309744,0.34193659493974404,0.3295117749659876,0.35753302102449014,0.3075352116782276,0.3003137541051308,0.3038925396681835,0.31138152883236986,0.31293252322524956,0.31782872121213523,0.3215768480762978,0.3046073146999805,0.34278686261702856,0.3248040959944187,0.3651293418800781,0.3426467253465475,0.3419056567717321,0.3090553652083755,0.36205750487855687,0.331867200103926,0.32083904688739473,0.3091065074577716,0.3093857514488369,0.34109341834273904,0.3169383872810438,0.2965504358407074,0.3335264579384566,0.3591880676396698,0.31387141238225474,0.35121098670821677,0.3296606106726128,0.32036755374042997,0.32875151398365277,0.3135568695290553,0.31200713057779883,0.31056277574849533,0.39444927516639733,0.339092723435343,0.34740026821339415,0.3284708313465722,0.31335997982917496,0.3382896622397827,0.3228758994186144,0.3275720390731402,0.3420636822643757,0.3325867631213204,0.3314053111485281,0.32442562743363274,0.32859848278735937,0.34680495813546564,0.3384940749910526,0.32923658014084056,0.3108345746447975,0.32094205265037024,0.3251255140736831,0.3084626084437903,0.34772759413209753,0.3244528443000833,0.33823793515521494,0.32615866400232085,0.31244986136377956,0.34761004619999386,0.34269945360580717,0.36739641375952387,0.3035030733126489,0.3023200820978049,0.3037705239797279,0.3209505748230792,0.33021093153207204,0.3218080862511156,0.3285074473944281,0.33929260215740337,0.3240903817259754,0.3180093640493757,0.31509982865242303,0.34442249374368816,0.4304550589683799,0.32317460182461744,0.3059858392246305,0.30780701263467536,0.3189848434108454,0.3769884918093639,0.3947755262401474,0.32957115946529536,0.38818294749543186,0.32447595738403967,0.3257747708287759,0.33869173818103626,0.32040898918362315,0.3658327862708849,0.31487897725889796,0.3180475398471966,0.34443788385380697,0.34719853509040266,0.31982559332537086,0.3134251114902463,0.307577676279181,0.3026016619144229
3,0.3185934273401356,0.3428546916556229,0.3274823311834693,0.3249761544059392,0.3402647220641673,0.31294178890467883,0.31243867793431124,0.3268506098232435,0.3162581999645505,0.3354341891764216,0.348113120867141,0.3312482091939117,0.35790910122676983,0.4064331051557284,0.32891904511017084,0.3047694639484356,0.3192657940074114,0.33140428920034903,0.31810043213657996,0.32831074177070063,0.30243473554953065,0.31161773947291416,0.31702622424713967,0.31528505378998894,0.29919320554640566,0.312736844072069,0.3635104815441876,0.3296718829147433,0.3151830675997763,0.33311839075335886,0.37531326477310883,0.30186757770076444,0.3065214316424729,0.3167967326040917,0.3334155151834168,0.31587782657631086,0.33988921141221046,0.29642634927535483,0.35096723493222937,0.32699693715354866,0.3259456227996447,0.29847974197319443,0.3169560869973738,0.3867774146874,0.32880193356538456,0.32547084582928587,0.3438830147028558,0.3173069522973214,0.29632229438822155,0.3204554524113539,0.31563023920549377,0.32022267139546595,0.32050155463887553,0.3428490356625283,0.3349527712456527,0.3036562278739677,0.30922680974848765,0.34942800579766653,0.3080471221501752,0.31015705626206774,0.3132483369232252,0.3728893479772125,0.3120329487011013,0.3786274946677542,0.35546011525626475,0.3301765077711961,0.3342281314024663,0.3370107919314703,0.34086532417417814,0.3142797657977884,0.34408865300388125,0.3394878274764405,0.3246223268229126,0.3886011660033505,0.3388876331197056,0.3130965510537188,0.33922565969461616,0.3713827648195118,0.34025053750426715,0.3192900839339926,0.32067907081007496,0.3199252661056887,0.3172205727472244,0.3135497959857171,0.3379644072434186,0.30204676575977135,0.31258064054446244,0.32918665877540615,0.3542962162636312,0.31742212611042586,0.3124696801042758,0.3522432396972259,0.31480867880600827,0.2977258409554287,0.3390544654447502,0.3451795305729587,0.3679358344522726,0.3341877794454825,0.32261079376856544,0.31604979731526456,0.29595136302190606,0.356918283524356,0.30922258841594197,0.3094409033015797,0.3457168659883965,0.34300997355579305,0.34786375057155644,0.31058535757413763,0.31771371524567094,0.30638824721171687,0.3200559226831403,0.31658722125683564,0.3238541475006697,0.33450376168928925,0.3311697929007771,0.33203660289984555,0.32703247788982337,0.3044614379332069,0.3342177766114248,0.34119776453243655,0.31193594616362696,0.32847307197944237,0.3005909188585804,0.33326827904275863,0.3224964474598377,0.3117311639538742,0.3369738997346864,0.36480328505653514,0.35297920790261333,0.30295003197476345,0.29912070657184603,0.3780568172794456,0.32237545549700053,0.3204199637201676,0.32832454538650213,0.29376456922813265,0.33313053016975214,0.34660226929723836,0.334526400962155,0.3129837361432871,0.33698154248578016,0.3486228678316861,0.316940812421936,0.3194791175893909,0.33614128370985247,0.320825767932427,0.30961364529571395,0.3164846065093697,0.3125185303812029,0.3087782721569332,0.35042946547778697,0.31861919859011895,0.2967163025271942,0.3518251764826762,0.31836631993195413,0.3641785917284537,0.3114069457506157,0.30417305595145266,0.3438168831171712,0.3197340681098619,0.32915667104627916,0.3239168812290302,0.312932700581536,0.32009071636542935,0.41199423458117057,0.33457683886653633,0.3301608135289885,0.3238665239261894,0.3321801238750568,0.35797292170642764,0.32341377294085805,0.31904340062657355,0.35607981117943155,0.3531798078637631,0.32052662619344247,0.35038465315297807,0.3146030613687756,0.3313831687838599,0.313972729183727,0.3289228259864334,0.3486879498912281,0.31166011595490023,0.3357468182079822,0.33003144624201186,0.31935440292137063,0.3143602363891874,0.33865714415119247,0.3158189360923959,0.3105249293352247,0.3008641396147819,0.3416485008045868,0.3097330814500626,0.34802395098907135,0.3072859914398022,0.3294631915572029,0.3369186284820268,0.32977948053345063,0.3155071905815229,0.31114629611706734,0.33834974518113314,0.31927537357658264,0.32931218664862805,0.36338131318145556,0.32090953663977284,0.3051724663114252,0.330023141799766,0.3390985903516855,0.30931640278248695,0.34389471946701783,0.2992370402627228,0.4123305896282757,0.33343965248971796,0.32774999350076006,0.31216833689292073,0.30747300667527366,0.2950371632523539,0.33232437847654295,0.3395695823653685,0.3221115911505693,0.36074976837038397,0.3078249878589101,0.31686454054385543,0.32453119431175137,0.3186337115948379,0.3359741856384698,0.3793859750289336,0.3588483621973829,0.33997295020596885,0.36366340370975875,0.3469565018211761,0.3201678558151511,0.3356745535609322,0.3633272034810508,0.3266663495780695,0.3189185795152271,0.32068382550902313,0.3080983615428013,0.3466546831029079,0.34646405467565367,0.3085574191164137,0.3169065290471612,0.3110120567627579,0.33593532524409053,0.3095889604786122,0.31518378865299,0.323933326497658,0.3071386696155684,0.33012212025270943,0.3234019874131714,0.3118890996655523,0.3201327053707362,0.38482542766592753,0.3053132346170905,0.32266934662354074,0.33555241106145123,0.3215387035447635,0.3582192177342398,0.32501683831030503,0.3700365975081938,0.31819615308278676,0.32260200961694024,0.3358086086902691,0.3222874588262389,0.33294245990417654,0.3695746340683846,0.3120541202816583,0.30360292911889586,0.32076938270590716,0.316605534736177,0.31567044993098925,0.32712491328142806,0.3101354407212574,0.3123136057576562,0.2974683362149802,0.31437288780266587,0.33516712384585395,0.33193431301215026,0.3488135460203863,0.3218731787774146,0.30340936172342514,0.32086198655036524,0.3094171640472772,0.32253959706593743,0.3281026678841053,0.3192389029600043,0.3241877595781708,0.3555637523595384,0.3217737163453328,0.3036028676758111,0.3531557604066382,0.33630738979463587,0.33759412132659106,0.34329093883709894,0.3251074554084262,0.3990835634040065,0.35271305751600945,0.3333377046713535,0.3503647571319797,0.32220215093102295,0.29516052173888735,0.31946905270743986,0.31002443083633313,0.3071819586305868,0.36087849614905154,0.3036473499085957,0.41010198843013235,0.30364221443461503,0.3121725517375185,0.34726131161134416,0.3247600384679507,0.32809682341803625,0.33121195327680786,0.30314361336006057,0.31029597777696294,0.42815433071072084,0.3224617935756172,0.33689166873959764,0.35144390251395063,0.3351356534349093,0.2948817620499832,0.31616073559617147,0.3247319681170496,0.30881683851553177,0.3210351767987558,0.36692539892466536,0.3101882328850175,0.32404834313332986,0.31514338334147896,0.37567524808980113,0.32151259193389536,0.348665971577705,0.33186218984604815,0.36264600585012896,0.3407512052702514,0.3633621658615004,0.34256301238132325,0.34054881882763655,0.30782011920143365,0.32617510858877885,0.34283417172691594,0.3610663570755675,0.34864442529753786,0.33572383700406794,0.3328968525410731,0.3435022476802937,0.32142746189880395,0.35746487097502,0.331344231118193,0.33355876962418896,0.35878570333444443,0.3027251599808233,0.3344317330012748,0.3060998182538478,0.3499471640708626,0.3298078934302426,0.3070915549590424,0.3237560413921005,0.3185422599255182,0.34714805220533906,0.3266566549326709,0.30810689865089913,0.3497707023005833,0.32808049856175625,0.32826264578825015,0.36137513183837905,0.32699047143244175,0.3482048161420647,0.31892694637149344,0.3422659155439455,0.30498812435427003,0.3035500863587791,0.30968150054353805,0.38839463880423064,0.34702444692025014,0.35145336567816265,0.3246543098483376,0.35332368327007024,0.33188896116776895,0.3310143510906032,0.32687191619763756,0.3153113270980398,0.32605416503161677,0.3043449731519074,0.3089875630885065,0.3428470357405285,0.36698562214212177,0.3153583431428884,0.29507240170112947,0.34787357187311985,0.31619548870935194,0.3364890986933567,0.31127412430732504,0.3653233749938537,0.31423419096157074,0.3541677884270597,0.31760668714849716,0.31860557342767415,0.3426737273611128,0.29906625103902085,0.3197190609482889,0.30198405158284264,0.3094538256969906,0.37789005798837094,0.3218468502232837,0.31100305301629955,0.3364781508727396,0.313977408231318,0.2947459233976847,0.3152598303102271,0.33384523959833234,0.3018874360920812,0.3060022715277451,0.31330944016047424,0.3173352575177235,0.3213593971344111,0.35748771199574425,0.3116172743080723,0.30766525324054667,0.3114768880387664,0.3002641734364248,0.4180641697606693,0.3231827298537105,0.3269318768881814,0.319353195915199,0.34601233220147726,0.357852115486718,0.3422930149696559,0.3388025656772541,0.31610168277495315,0.3709413804969337,0.3203551396560819,0.3332066384004194,0.3326621333998748,0.30559715794259873,0.3308183758587829,0.33357088243187377,0.3586319338701154,0.3131646966651254,0.3273833511515306,0.33015342377715096,0.3092315701620835,0.31748879352095194,0.30982435815627263,0.39441064413399773,0.3129947679432391,0.34371634868163875,0.3445347920084215,0.33492833423665413,0.33656722351311896,0.31016969932665905,0.3046156515091053,0.35728708232817485,0.3264410715254868,0.32559172016239496,0.34027416394933446,0.3761990364954302,0.3054443762347825,0.29752642558196657,0.38600065100331704,0.31274337330382995,0.3301268909489526,0.31465720179810364,0.31832260424135844,0.3719750149067154,0.3182197789035772,0.32785831694329504,0.3537193972440094,0.32506709576801984,0.3066452885840219,0.32290019726911046,0.34011603250652833,0.3140836965549598,0.32726844496975893,0.31514147709783435,0.3116246700753714,0.30339861929086814,0.3259681139384248,0.3533612857335261,0.33309685668374966,0.30387738419568394,0.30796297540018785,0.3586772054035459,0.3022929621879903,0.34297040213114977,0.33173214225955977,0.3293906618135457,0.3878115067644059,0.3234069568205814,0.4000307287436121,0.32585484405446224,0.33364311381645845,0.37280100927169585,0.3464611505101499,0.30412675352295154,0.31786128872431585,0.3181403461044024,0.31459892339129797,0.31607442234090216,0.33990654977732265,0.3128594321189693
4,0.36365434384933765,0.32250916743559677,0.3275718295722647,0.36552909446462856,0.3080176872976356,0.3559315205175703,0.31911426693036254,0.33192742553279125,0.3181131477358726,0.32665994517266606,0.33188811507659427,0.3211056977097341,0.3336622808107098,0.3778455566955349,0.3366864626933588,0.3321905489604765,0.34990750454950514,0.29538488543219926,0.32943908974640707,0.3435483785520244,0.3381235489454897,0.3090552662542322,0.3237344366064724,0.30292027100058816,0.3260226875818649,0.3269090133725039,0.33544151724876675,0.36391458340714833,0.34683824342997965,0.34017007603993166,0.4114168648066211,0.33408469360334686,0.29969642846128974,0.31454427773605287,0.3234199724146462,0.32021333467691315,0.2879346343652324,0.3147133483146996,0.32373015070871713,0.3146356025558056,0.3868996322150068,0.30448034059269957,0.34824453102441694,0.34697850563977733,0.32212883356116834,0.32426195750033177,0.3450146007514117,0.32602428836644104,0.30865935197153627,0.3326986916233782,0.3248207683620537,0.32413311309988163,0.3371906242037962,0.43203900600411754,0.3349682098970514,0.33019993229359745,0.3143295160946651,0.33422079300166047,0.32610901286366367,0.3380575618633886,0.3139362468070001,0.3484071019063804,0.3385111587326547,0.35370401501371684,0.3229221666666281,0.3316993096708641,0.3463603710735488,0.41468750594730713,0.3098073885596475,0.3640417178667358,0.31981283874090677,0.33861774469810324,0.3431144496279107,0.3224104058715498,0.3301278423413576,0.3376917257027231,0.3198526984370084,0.37341789957033505,0.315468474407654,0.3262427003653229,0.31787649355893377,0.3260937210957775,0.3113628024918198,0.33169748976936286,0.37805864009854034,0.3079584453469296,0.3310729996118581,0.3094261743507082,0.2921704101858805,0.32692488629366817,0.3892098690478402,0.33752233881683347,0.3396438508584937,0.3365107983866683,0.3309734738316218,0.31260034372172224,0.3856368722452711,0.3268942823919926,0.3518935226716529,0.32872871946994664,0.32701754388204257,0.31212570102713844,0.3164209992146471,0.3346867983781677,0.3278401870812146,0.35771440427499307,0.36467660990935397,0.33240103700555457,0.33908237412595776,0.30232883701692825,0.3521122885935341,0.33884162876566765,0.3343077621650917,0.30780444130137574,0.31586440766023693,0.35184342471900787,0.33201707869096697,0.3204687763833031,0.33110293203150953,0.33804630067839525,0.3054932033907215,0.32943456208587435,0.30934828201878706,0.3380352714317432,0.3185885780825599,0.3299406237965917,0.34747105261724853,0.31354321791057715,0.33967957566559204,0.3046860979670857,0.30175171169990767,0.3402593831775974,0.32786869088900755,0.299611278769986,0.31635418090254563,0.30902903886460253,0.3298881976841869,0.3285650920633229,0.3278916272451125,0.33246594367199755,0.35009905319528006,0.32794555340425563,0.3318737158427115,0.3153895139195759,0.3470923885348323,0.31711196770110367,0.31167927424012515,0.3204871477214885,0.3396204725823807,0.28789505807832894,0.31508543178172943,0.3180553665922705,0.2997730864785849,0.3126017232134484,0.30478285540367495,0.33529787014290824,0.3133798460148991,0.31287090812708424,0.3080243550206936,0.29654857002767415,0.31501656031091796,0.3214054267682019,0.31957601007082104,0.3314732734796542,0.36573773230076734,0.3499858387608809,0.3319670723924855,0.33997784733952885,0.32464110089594544,0.3248495816937696,0.3158323885155403,0.31734323112604407,0.341736766186544,0.3122762554316073,0.36841179642482114,0.34369882241074345,0.3119993500357171,0.34233448900085983,0.32211848211517086,0.31664341827607745,0.32965936434684584,0.2931368556372975,0.31571960441424274,0.3289664404110789,0.3600472602296866,0.3019174355211879,0.32107757254844543,0.32141738338220033,0.34393922590638554,0.29695313949805596,0.32182431033522574,0.3131698439373162,0.331803100973648,0.31776559689741646,0.37164217621308426,0.31988420224174685,0.312494695332051,0.3100746711637165,0.33860935164118283,0.3410629841431193,0.3226649879562342,0.34187724426712923,0.33660488612488504,0.3294156576907401,0.33865606623089284,0.3559089631129533,0.3258145035199778,0.3311564607458825,0.3480002397416407,0.3053939920903212,0.3672580716445235,0.31219728883043935,0.33584036445679166,0.3148184195736438,0.31296005551464856,0.3329187097254963,0.2988893903021543,0.3173229286947469,0.35620819189086383,0.3112746683240659,0.30593036841981514,0.31565362226335997,0.31457914731793934,0.33236087058752534,0.33316642796016693,0.33308129804332626,0.33211091367064893,0.33103178305957115,0.33250952143952256,0.3282076052590146,0.34524908297268053,0.31014639668491456,0.32761025998891624,0.30655941002164677,0.3203781744450404,0.32820386821250397,0.37072217298660276,0.32186231296410844,0.39513267336552405,0.3247160156251602,0.3227161825960096,0.31705987150337867,0.30518342343659055,0.30467608792362805,0.32367618111704555,0.30924909879781853,0.2969177592153621,0.33273448369752195,0.32514860759568054,0.3227399291830867,0.34334759525990866,0.33011164349789673,0.29113020612669444,0.3177021787312155,0.31548491308523074,0.3264611540344546,0.32888299193265824,0.3204524979457389,0.32790435582057315,0.3102236940217029,0.30574803353571023,0.32559115576086833,0.3537970980796065,0.3266744845781421,0.33705914836733897,0.3110054144107992,0.31022556714658905,0.3346775240106461,0.3114071751903601,0.30118000707450576,0.31847462460020093,0.324117270633271,0.31008701325558063,0.3509385459360234,0.3162737904659021,0.31398373761045173,0.32700117227949843,0.3158699297029645,0.32544069872214837,0.33600535281203586,0.30911272688624514,0.30878397267734226,0.34920185102317813,0.308581392888817,0.30381298469288254,0.3663910337357721,0.30264431160301564,0.31043402432852285,0.29913790661039064,0.32059621044159387,0.3231536555071285,0.30539212767308305,0.32276143507314187,0.3118521956381303,0.38831080815791263,0.3498182094325938,0.3005193233256531,0.3346660412823502,0.32192721615010883,0.3021410462730377,0.33127070428546584,0.3300383200144541,0.2988630463420734,0.30605179807877,0.3305078329909673,0.376175011592859,0.3122553068562377,0.320667325390938,0.3530837914715155,0.317302620655694,0.3223703528058737,0.3097996129798045,0.32964198992923455,0.3121432991166195,0.32080887410321435,0.4177898473591485,0.3379149603812098,0.3187519527060516,0.3549090280117246,0.3008949068483714,0.33429051240474217,0.33405002016731494,0.31358048522535886,0.3429445331655697,0.3424044326346185,0.32504670281277875,0.3054474029161679,0.32089895329311513,0.30090303282101427,0.3334907296723477,0.3328154709103127,0.3053876072201582,0.33785079545677543,0.33222494129677854,0.3286688232292113,0.329954567995388,0.3215387008118594,0.31888708083158523,0.32552766354736534,0.32726180106117203,0.35976118554011827,0.3482096025620339,0.32485641417693795,0.31978821630099946,0.33174227907659326,0.32456020283589637,0.37220542449685,0.3111835108997296,0.3060673777431696,0.3047690234774101,0.3120187699444809,0.32270618447178895,0.34193302333021924,0.32286508783774825,0.31370086109961376,0.3445250710224054,0.3575199258176883,0.3092349629663881,0.3387088661005536,0.32355761935687943,0.3016080708471676,0.3242246518325367,0.3120306066953615,0.32068277289116753,0.31424917849038814,0.34364332492321076,0.3195298960617453,0.3086864732742317,0.3175104173276871,0.30116738989729924,0.3141148449054114,0.3507480106938621,0.35393688350736824,0.3449335390958169,0.326034348862479,0.3190618899339035,0.34141227237326144,0.3414362780750804,0.35928991919023306,0.36222256517423135,0.3362226608338359,0.31931522218306585,0.3290395142201126,0.3598746610053823,0.3219078420024847,0.3341878674154095,0.3437527255428547,0.31585951649819144,0.33802751074697607,0.33400058663282445,0.33127009253674555,0.3230421247184279,0.3459629960475989,0.3420731066731157,0.2969177065701496,0.319582037233064,0.30974531442834063,0.3184171266231664,0.29763744613432064,0.3316510299782619,0.30363528721662825,0.3422940386778662,0.32868276326330365,0.34114541292140366,0.3052323066524864,0.34811053679341075,0.3112171588685448,0.30783655185315273,0.3213482881704358,0.3211655661734771,0.3219324621494067,0.3027967593130672,0.33347730774812967,0.3538749104931719,0.32439553710376506,0.3450694035608231,0.31407397289850525,0.31331499295033677,0.3354413080132142,0.30670571434280103,0.3229516112759428,0.3111401456742046,0.31269406206831346,0.35054673602532016,0.3053115234670708,0.34595728158168215,0.3069336032617901,0.3310064475953464,0.33110413789326665,0.37050111627572424,0.32990585782633053,0.34376952583013487,0.35031075618048335,0.2953698618478514,0.30198154071640143,0.3412175252332909,0.3441694189734513,0.3102658893364659,0.3410956548351311,0.30892636488893344,0.31847463727185066,0.3033860799623886,0.3440172885555991,0.34680981716094783,0.33230944939117424,0.3296779987223003,0.31790937404095104,0.3132972517069264,0.3219337147631312,0.3471544536161925,0.31604774589447704,0.3153648877398963,0.3259844066218394,0.31918773080117385,0.31438713228667975,0.326958045433174,0.3261017002210883,0.3135415945004443,0.35693755513894304,0.3417313401611616,0.36641608050151164,0.3211888650078583,0.3191283788925814,0.39142429190939193,0.336459434676615,0.3138214930033395,0.3109380337230256,0.31127851596811507,0.30980723286621165,0.31625945782653075,0.3381421488669559,0.32035993229484155,0.3468778485578064,0.4000952501812834,0.30656396907039796,0.39477354854687263,0.3113689461062382,0.3768896665751992,0.351713608780145,0.3167708092584344,0.3086797893313988,0.3359205083342178,0.31817951863842964,0.29812366023089465,0.318532914550879,0.3647883396640018,0.3683539103191035,0.33446437354552333,0.36617836999936715,0.3261306915151765,0.3518052780718238,0.34866338134652713,0.311235287611212,0.3196226247856572,0.29856789483179386,0.3532770667383578,0.3272881383271029,0.3117096119979454,0.30675772077232644,0.3249010743929705
5,0.3380246409476765,0.37785110251026743,0.3314864018250104,0.36426538428818417,0.30949530175511103,0.330957985715651,0.33220799462909156,0.32548864717722154,0.31283803104837987,0.35613324784524536,0.3510824018535227,0.3097319149443837,0.3456915293740005,0.35785937917054456,0.3466165600793314,0.35260654995238555,0.341868272222466,0.3047697470818803,0.3428892610933082,0.3260554648574642,0.3188765422521156,0.32614168250144104,0.3346032832906924,0.3070819875713676,0.3108138614207573,0.3360126239050773,0.341652455791238,0.33695453331197806,0.32490814508349253,0.29964888051053495,0.3333925884973946,0.3610772865656907,0.3030064663863229,0.3318388269337149,0.31816095595753785,0.3207459373577798,0.3573708195696095,0.3355846500823561,0.3248436363286132,0.34619986493315474,0.3402666059797602,0.31721521586146995,0.32430995585930783,0.33586597523407824,0.30265008140378885,0.31697404352701675,0.3570883240867181,0.35117137758798966,0.30489782739014937,0.3297885411904297,0.31482312397731577,0.3347985404661304,0.3223955613196957,0.32737724214874,0.34470356373195266,0.3263716820693289,0.29988214450080297,0.3144043759303266,0.3207030401260378,0.2993121053681003,0.29847041683869024,0.3513386937166838,0.35362880932586893,0.3503082950136892,0.3629896463879664,0.33682655462422006,0.3090585188654119,0.357895143875421,0.3335141202662058,0.32645962148984087,0.3130011698140796,0.3602730964383,0.30364983297847575,0.34134394491595954,0.3065056764960724,0.3522798420438727,0.3242263417003648,0.34657819720538063,0.3210077235268237,0.3285158720938962,0.3123942969916665,0.3074892092690739,0.2998032550878138,0.30884808454953483,0.3973940252719615,0.3284242333925952,0.32766494265743346,0.3253539165592845,0.3139832363049816,0.3058071516250277,0.3312248405806809,0.41664611191896245,0.3253592614808907,0.37431069879330425,0.3392473267413261,0.31349347843430536,0.3455139977792153,0.3240839979864466,0.38017813089894276,0.31243073323113485,0.30987384128190165,0.3102641085605056,0.2998531592292737,0.3256731872163213,0.31933421838605086,0.31335236858743454,0.32719112072549034,0.32484519647878496,0.3684787851364095,0.36554351065753116,0.3121096391114003,0.3256374387649606,0.3429057088053624,0.3133767685400115,0.3715780033818993,0.31118029787160334,0.3253798828025305,0.32603744764846715,0.36138537603201604,0.3437777761363215,0.3141270546164252,0.3324487776985984,0.3008707019716458,0.32507746375956253,0.34482519667107575,0.3133340691955314,0.32334603622347424,0.31476108383465934,0.3686963460273053,0.31420872932922284,0.32736574058378676,0.31974259137168237,0.3265979194874645,0.34631276127432853,0.32192653736926113,0.30363576914883306,0.3337480582248245,0.3382975289537468,0.334144085846718,0.30880926863615,0.32705355625926336,0.31693494794410837,0.3367992750614998,0.3551927920831244,0.3496018656344036,0.3238678547218809,0.3159467345042114,0.3146703361868556,0.3261566418635057,0.3211118051554656,0.32369680061811057,0.3186485536467082,0.30364942035627623,0.3178387168597137,0.31300028627558685,0.3000490684753704,0.3470218932421677,0.3275412186251242,0.30872533545929437,0.30955516670180716,0.31881078397701557,0.3228365185298612,0.3184666849325872,0.3396510704239526,0.36017764885438963,0.35941015228602013,0.31903391813864374,0.3293835545230633,0.32531075416886845,0.38207540442385274,0.31293450427807,0.3244994340626457,0.31478260016115406,0.3175628684444488,0.34821796872925526,0.3479781911729414,0.3319019567069851,0.33553843262736865,0.3297878898713368,0.325306249379285,0.32498547681925116,0.31458094667155034,0.31844979949384744,0.35321379872843084,0.35141373206894944,0.3367860191301933,0.3073567063219687,0.3305751358432988,0.3135426333394274,0.30795220944859397,0.3045634179118265,0.3132889147450187,0.33220151753643545,0.3333028404736884,0.33694315537085057,0.3214454340920006,0.34136678570530676,0.3209143673944831,0.31670824017066446,0.3163709319591552,0.3298177743842479,0.35301321558289384,0.3273594411190075,0.31696656977061366,0.357418437975856,0.3482184906481064,0.32778448249450715,0.3355197659585757,0.32230329471214636,0.3052409585475814,0.38236392073096537,0.3047820898491843,0.32101388774835427,0.3184407897766519,0.3267293275611982,0.2970015605878484,0.3181156252144798,0.3074504626918128,0.3369196218131775,0.35261180909611795,0.2910116252636746,0.33290090004057576,0.31899449645811534,0.3403728856704556,0.32150810772274746,0.3334057477421529,0.3583006096319137,0.3204412233928294,0.3616894257372225,0.32129765920964737,0.32953325749460627,0.3076732470060658,0.35218268791086416,0.33070294043960674,0.37390032271663987,0.308886728270505,0.33066085175843724,0.3241699878873186,0.3534310066776438,0.3191136505269071,0.35284698701426426,0.3432128811358562,0.3041843753611863,0.3143102574055993,0.30443570056107827,0.3005405741273751,0.30744466646526203,0.34455127112061057,0.29630484835323345,0.3202180824401,0.37535922150030754,0.3369623810301764,0.32734618180622227,0.31172598284577435,0.33310299488335327,0.32976516650770227,0.3761149929005046,0.3961644548575311,0.3474029414085914,0.3289371639233287,0.3085683263030662,0.32985233041592465,0.30810841523391697,0.34753918769999875,0.32829374538852896,0.31425896792530594,0.3067855786126518,0.3645442806613644,0.3493550512284573,0.32141012196522073,0.35808101869743686,0.3271352405939711,0.334742736650473,0.35750590998821596,0.3127896134844755,0.32283720214762796,0.33208389505897756,0.3056304595697351,0.3323758014260352,0.36398212740857383,0.31742561408607317,0.318809306881028,0.3941475719918107,0.3235460589446838,0.3362896455106548,0.33322187910361906,0.3071467242276518,0.3316051876633786,0.31654760095872514,0.3517514794955481,0.33524412201575565,0.3165305147057429,0.31876400166871066,0.30938937179493514,0.3563541908733685,0.32434405698894114,0.365120789901142,0.3199614593704717,0.3116381754132767,0.30326317825314286,0.3409950622457029,0.3223649808806781,0.3137338545800207,0.3391722754540482,0.31981354810784623,0.32785503390944404,0.30051792323551196,0.31148272102999114,0.33589806742682393,0.3934848230425267,0.3167105922905764,0.3134011096193129,0.34577901594799104,0.323243173040357,0.33419451007440537,0.3568771519314898,0.32712994244900795,0.3325439959209645,0.3770045339066913,0.32436938648061936,0.3318048170326393,0.33857553133365886,0.35592935618292054,0.3501802515117031,0.3371908939653794,0.3122117901310458,0.36292338240808086,0.31444278620837307,0.3374353840047605,0.3284952753098489,0.34910369201981195,0.3271458448800982,0.33485672640427006,0.3328331330176374,0.32169647292175196,0.32289018642716266,0.3252025553646607,0.29629907657342125,0.3291311293747225,0.34407724045970645,0.33264188512888604,0.3367196810899985,0.33527879146513945,0.3450191794976959,0.3553176525152117,0.3450363763996619,0.3337845269097896,0.3036419918138622,0.3404546176640128,0.3054106623076787,0.32056593662441657,0.3407654317831254,0.2969637828755042,0.3158964408780082,0.32202724474898603,0.31693317007779587,0.32280160902444155,0.3233247174283981,0.32935419048953535,0.32464775323110545,0.30830932504089115,0.3460370352701678,0.30857260623437355,0.32662449523755704,0.3224270297288966,0.32704869822997856,0.3598410772766617,0.31333399798459793,0.3123530774217844,0.31457043625634834,0.3426258746909104,0.3389642882154709,0.34345375160229635,0.34518804156162397,0.35663827543823057,0.301312209500204,0.3322781077174474,0.312650526671408,0.3355722615338299,0.32034426889204776,0.34906207519540844,0.3056230598100233,0.3100502036703105,0.32341918685612414,0.3310441938751082,0.35208900945714194,0.3196253912747644,0.29348687026832837,0.3243640773824007,0.32596949804645475,0.3420927802430258,0.3222946935500666,0.34256808464986044,0.33887458412322,0.31593572392449104,0.32228073397997153,0.3184588570123288,0.34415084177274247,0.32000902015306415,0.3103136232260637,0.3144117926748356,0.30872745536898266,0.3019916202640961,0.38238210095893393,0.3306611581396571,0.3503928399780053,0.3181337815601694,0.321168941695292,0.31526987482966173,0.3415817513425344,0.3238874063032606,0.32207063096036104,0.3252977765220055,0.3207407417946088,0.3189824214608739,0.3113354612438768,0.3390393757652727,0.3139740847936346,0.3044013324914364,0.3400050292944973,0.3638429927830349,0.32452352609832913,0.317265356217498,0.3070901831363213,0.3076913851222959,0.36385107883869017,0.33028727791797147,0.38131802021620265,0.34483386592727866,0.3462037054979713,0.3393178206454804,0.3055900245604406,0.3281900363238962,0.29881947641959056,0.2955037636942697,0.32330290103559817,0.30383374473330027,0.30820646308684313,0.344696521963955,0.31405840186108264,0.33113282878070804,0.31816474258293287,0.3082745653224475,0.35520766985671204,0.32309344971372794,0.3115943041567373,0.29597757704554384,0.3188125459199206,0.3280637394898248,0.3228274827428469,0.3312117423907193,0.3340453572651473,0.3186109259984096,0.3103107314533939,0.3517706260131873,0.34521237379402087,0.31848942909463024,0.3231061433384891,0.3419858279942659,0.31894973083919076,0.3453218343883848,0.34134305660526526,0.30086687857713235,0.31047124938073056,0.298343341686901,0.3323746431342032,0.3176733613372897,0.31494739913830305,0.297850270971519,0.31689600853067956,0.31405971603631333,0.3139239816709033,0.32764593001547676,0.3625810288761881,0.3208601316344803,0.31216014602986425,0.3403522193148251,0.35567522575973837,0.3535381987550252,0.3014559137192094,0.30417999622792735,0.34241463867439514,0.3152877980295864,0.32644840848432133,0.3373197674538617,0.35454341346957297,0.33407872609960815,0.329084854954636,0.3475476154292638,0.31702727220627747,0.31036892606558836,0.316230260003937,0.3028946816843432,0.33869312358993325,0.3392225181607707,0.357383953265847,0.3236616493156286,0.3152232746828768,0.3161929962535864,0.30955516297143143
6,0.3482914073818738,0.31513623171173144,0.3304758833831974,0.37495799295117643,0.31138548775438796,0.37578161103678426,0.3235482553318637,0.3473801364954042,0.3186348695993747,0.3368719149082711,0.326526260460017,0.31301661801675895,0.3154806614272946,0.3912429948266849,0.4213670300278979,0.324879069750426,0.3208881810118923,0.3213518691636991,0.3440951000609528,0.31722074998969824,0.2997306658243041,0.31402177895693806,0.3029003876748583,0.30545682325729595,0.31130500576227577,0.33203564198565216,0.3428116028773765,0.3351619348602951,0.30816799797499594,0.3230106327954215,0.35436016017821237,0.3266527617548288,0.31317808173448575,0.33793718575115667,0.34318730573348044,0.31392050823037776,0.3708135851636406,0.3164513543375231,0.3564864902632531,0.33160002637407093,0.37943093147015305,0.32049864764852753,0.3277097205624753,0.3476332407028374,0.29953969951308135,0.34047659946017866,0.40204603603406247,0.34735255969738926,0.3385227981754536,0.32958176115234644,0.3122713901398113,0.3238786600784359,0.3069871242794601,0.3834260697823956,0.3280014030879558,0.32729795209112605,0.30304586011992185,0.31388889097257044,0.3304012956483824,0.34617332203887263,0.3159156399268661,0.31228386125070645,0.3180453256159369,0.3385230817883646,0.3464111726992215,0.3278437296346649,0.3299424549402904,0.36366172194914903,0.3632350506111264,0.3293437603114153,0.32790027433673247,0.30058411413977504,0.3077539051234347,0.33430473622430057,0.3351628230004811,0.35142946584594714,0.31301896192930456,0.3303402940197511,0.3088578650644359,0.33074914981958603,0.3208721280734801,0.3249552690678532,0.33814880129781566,0.3045531596003692,0.35762646238245194,0.31020877360997795,0.33677937376200273,0.3217783369973285,0.29718659914870915,0.3113401761162273,0.30197719581944793,0.36368152077977134,0.34985404053134944,0.3619908769998779,0.3359442875882028,0.3401781704372926,0.3013292135694759,0.34695694312523645,0.3795507510978534,0.31939943097108464,0.3286594330362557,0.32910875717357035,0.3081337418502158,0.3366275190934581,0.3201065599513323,0.3134880479223163,0.357069266747188,0.36512293726903067,0.34062478822954473,0.3217713423307578,0.314358009270289,0.32628566551754407,0.32254109636422584,0.3118470511348722,0.3108520460632386,0.32804674312438886,0.3196671105627582,0.3054643845421837,0.3119630388193023,0.3387045669052625,0.3227838897944549,0.3172096880229537,0.329047369401765,0.3448217950952923,0.32570891008038083,0.303950251996014,0.32028325038572075,0.344604364424254,0.37482550162201983,0.30616994293911703,0.3041807815491035,0.32157083076846305,0.31289676148638723,0.33036514767406117,0.31954495908899205,0.32130197184402004,0.36093169253645485,0.33182852347620617,0.32456315398469715,0.3027373739641567,0.3695851081126648,0.3222209230948712,0.3392109557243378,0.340622869965702,0.34806540919367707,0.30877943260803076,0.32265949873974126,0.3204011820803185,0.3408641984465721,0.30285363688009076,0.3139068867245565,0.3265344084128453,0.30742140454712585,0.3225207825405019,0.32984828189838056,0.329248868471517,0.297413909242368,0.3331557287291233,0.30676543567541037,0.3401018053204615,0.30472291368886445,0.3230713858017842,0.3056189952409552,0.33063009891949535,0.3650607459057794,0.3162870724080423,0.3164530657723962,0.3518133405327587,0.3286694800476299,0.38089589486586056,0.3260773093109381,0.30753805653029204,0.32673886421494536,0.31750858121582903,0.31873520102214437,0.3032370520742488,0.337379492057743,0.3230063608908788,0.32283383100526214,0.30786624901963344,0.3179982336485175,0.3162487230415311,0.3145695390841077,0.346217154669987,0.3413711905398169,0.3364698362660732,0.35067635122089474,0.3405573045112331,0.3326518502568721,0.30061543603144164,0.30143560428197325,0.34502216661926505,0.3634776270511787,0.33432892228721617,0.3310890049472438,0.3602241246864489,0.3198277744406,0.31524748750336984,0.3203263461872542,0.349757745802984,0.3237995945959601,0.35078208788198434,0.339336418340388,0.30725651824655653,0.34017636877016727,0.3422713701878611,0.3194328018881491,0.33500543898737345,0.3394610994545852,0.288875660880784,0.364984919860666,0.32085450456203135,0.3338170426690839,0.31749025678504716,0.30859381630178123,0.30227159294387596,0.3053304388281961,0.30855269369721544,0.350600179195608,0.3961421475140567,0.28851219369492825,0.3053369346796292,0.33815870097639955,0.3363979739481643,0.32218626958741914,0.3171103259328271,0.3238348945777611,0.3124010304048175,0.33793045268821864,0.32947199555770607,0.2942280997373556,0.29846860092332983,0.3272289959584261,0.3248906049326776,0.3457740081154092,0.3111832200249306,0.30722412362317264,0.3217414957373691,0.3615702218015898,0.32545610577578593,0.32676273556119095,0.30682329951614823,0.30619136124274543,0.2943314618739536,0.32333252508306193,0.29822300533484863,0.31073360618667606,0.3096482645176214,0.3060680627299255,0.3362052319817668,0.3887433017374211,0.32715620665538087,0.2943924441235052,0.3065889883579406,0.34291536703148096,0.3292478401136473,0.35894948428098566,0.356321539022407,0.3505090104511666,0.32801931278110474,0.3273411066063244,0.3439471520129495,0.33457100774707466,0.3546126826128858,0.33684401633476185,0.3112286626110976,0.3262864137214475,0.33808114355767577,0.3169575211916126,0.31819544356687807,0.34520460408523834,0.3309889175288745,0.2996316244348663,0.34831687303537273,0.35768861480966163,0.312417734348353,0.3306970276710686,0.3116735713650153,0.33566840199985953,0.34696018473353024,0.31183685093294583,0.3483647869825431,0.3697350185961953,0.31016519693532807,0.31617434221602647,0.31585840332134746,0.31032777718149623,0.31553430286335205,0.3143601926430982,0.3553312201552176,0.31056813079917156,0.3003768944871664,0.33163869165121274,0.3113147393636394,0.3343468660188281,0.3285773697934899,0.35817127258023973,0.3397251507797168,0.32359025893162835,0.3160103712748068,0.3140178464921504,0.30753815154987174,0.3372123484743822,0.3276587494479276,0.3344775920481428,0.3266327444793985,0.30371387955955853,0.31267687189882093,0.356196567326203,0.3258177208231775,0.3346927773356049,0.3084409034306216,0.3110361814119167,0.3368296298196015,0.3566459811088412,0.3432694818184997,0.3291237719229595,0.3113101859983515,0.31940557596133967,0.3162187267888722,0.3383393752612126,0.3346137781592857,0.34137924696837363,0.3422661405160924,0.33422940026795606,0.30834158039411247,0.3782952779981866,0.30560777367029784,0.3319166674374205,0.3644559012323613,0.34673045008173436,0.3418442009894477,0.3058429200969935,0.3305532193528743,0.31563032864639895,0.32039879166418683,0.3320368375188992,0.294956683283666,0.3315932012549506,0.3311526476537515,0.3213232183811836,0.3489292118102802,0.3537234217479546,0.3083487038661557,0.30799476831067135,0.33542844881231476,0.3388505403688628,0.31907682088708206,0.3305538193835207,0.328177361787072,0.30822208199582257,0.34910590308324496,0.3003597039826771,0.3353642687010265,0.3005583501248662,0.3529338073672565,0.35733249217227303,0.313398852556935,0.3095706126844308,0.32749228552705606,0.31699729357053374,0.343095823086578,0.32988898802480454,0.3216644265071826,0.37753690143106616,0.31521218382821037,0.35469416096578393,0.30947908929444423,0.3322978628999845,0.287921816380615,0.336114327403611,0.3001165652555781,0.3410773734716469,0.3369742473858911,0.3479645992759435,0.31342037063316086,0.3209422839485683,0.3043938497567989,0.34685347963645297,0.3357945043119509,0.32970705986560966,0.3215621605721099,0.33833792573370886,0.33883106268274044,0.32038080347049835,0.3550011440139081,0.36094508251365076,0.29298139724021544,0.3445661933060906,0.31375443596410474,0.3273127037677994,0.3052180627390426,0.32156045914969755,0.3157723580170411,0.32758695722326936,0.3193254314005548,0.3253380944535031,0.32249653980306175,0.31962229711609036,0.31961848637104234,0.32234487531104306,0.30993449368935155,0.31855289445770374,0.3044175520437854,0.35652980323084826,0.3320674636268346,0.31200429137954483,0.31213467124505806,0.3192265278445757,0.3220561306371347,0.305157791091389,0.3244618670337238,0.31470572849556483,0.3086130998331372,0.31747806419266533,0.31727462576556154,0.30421382305283895,0.32661813849618804,0.33948513481294634,0.30102022080023655,0.35765029934661197,0.31227239504592585,0.33982573597890814,0.323400741875223,0.3046401847793013,0.42062559578318603,0.3450982570285192,0.36261384405375396,0.3691578873058837,0.40278608285570716,0.3226146671609683,0.3308048539054083,0.32802720001964947,0.3007331627170007,0.32108230177481,0.3249007171266792,0.36245366704274506,0.3077386136626638,0.34823092099625075,0.30385098254100174,0.3338707668775141,0.33236783593183206,0.3229796950881549,0.323210381036078,0.32851293370755114,0.3194067600552084,0.3102302422448261,0.3283622533635802,0.3431215948804368,0.31705008168493926,0.30753505579377605,0.3208898420575709,0.3258895379413171,0.3114603058885005,0.3551303051355271,0.3500032162284457,0.31505531350381377,0.30226181146353015,0.33918184337141066,0.3262310714549959,0.3436764786234754,0.33837356909248734,0.33193425951589467,0.31395784998955256,0.3218637730215585,0.35810730967937127,0.3145320689016019,0.3095420274223612,0.3082719054631513,0.3469937321542441,0.3194818941938837,0.3374568401396648,0.35441655532184685,0.3016109825831443,0.3234408271500574,0.3176288394593674,0.3075414247045379,0.4171352669644192,0.3606954313550147,0.3248024915656692,0.3074669314357491,0.3429206177022933,0.3268283300764184,0.3291106303114165,0.341811321680318,0.3448531548736765,0.35879193667535797,0.3667988391460281,0.35884462636197373,0.33665488468154303,0.34167936071764193,0.34599933318163506,0.3496010498505649,0.30437795194924366,0.3299074890778512,0.37048584306477267,0.3364724660386118,0.3302879002483884,0.2980631585591995,0.33215115762408437
7,0.33677087441566844,0.3160313649905884,0.30517993865371545,0.3599289942458027,0.3139182573626117,0.3677835211653835,0.3036028591994801,0.32621340980712865,0.31521554627128034,0.3522683661963918,0.32995127083064363,0.3199283251715687,0.3618319296960032,0.3201296889109563,0.33652492360732367,0.33370365679852115,0.3319876672837735,0.3146250881423739,0.321235440938641,0.3324286201787097,0.35110181263184626,0.31626096800815007,0.3199707572425877,0.30084272369630793,0.3107010900518995,0.3189763281291656,0.41406307352005395,0.3608743264259809,0.31526700761145865,0.3052794408299143,0.3356927529669839,0.30332416009990804,0.30148485735031083,0.329858042977615,0.329129913733804,0.335986295040611,0.31305763030271183,0.3330110760210677,0.311340410444391,0.2979024448116291,0.33248581474783134,0.37175247904379966,0.35208237496563655,0.3353705698176769,0.3177173974932024,0.3001478739559388,0.348769252954927,0.32376038581351646,0.30597441439821116,0.3199071176736973,0.30804026535220813,0.3258789847775945,0.3216063583083953,0.3641025711032767,0.38559494623837715,0.3181762817419639,0.32866957042455214,0.31410721223499133,0.318188153445105,0.31985483092518546,0.3301128179223479,0.34047633531773125,0.31815510048975176,0.31101595457209263,0.38108157325151226,0.3512963222875396,0.30222318451802643,0.39813571611938675,0.32493816923357816,0.3534369149056873,0.32098616166798083,0.3490974334723671,0.31488089011509357,0.3067857308694629,0.3672645504109807,0.3527672234973114,0.3120008387412788,0.33194502884897314,0.31208518021764753,0.3197836225419547,0.31291476582145517,0.31488215229709327,0.3394345000754561,0.322058201411084,0.3351655042388499,0.31578251834204474,0.3206476269206555,0.3283057080099733,0.3108296631776834,0.3597623244527687,0.32187610016312757,0.3599303929867447,0.33165339846004827,0.37297612046413564,0.3565689111654705,0.34600576728988397,0.3058922803404428,0.32977535100005495,0.36965163417753966,0.33217075011774033,0.3053577346112798,0.34931238604512493,0.32797006781013677,0.32387680078753894,0.29846114092050613,0.3227013527126747,0.35005847164635034,0.37968367873574704,0.35227582836616833,0.3571362799671999,0.3224277325229388,0.3165710110040931,0.3185409586623417,0.3108345047186446,0.3131385517843075,0.3318680391680429,0.3053266270369827,0.32147503231099556,0.35752822143795865,0.29975611078502273,0.33120004696275507,0.32815678206755705,0.3478334864682481,0.3479360388017451,0.3385586164629652,0.3112085695818966,0.3561053492370734,0.33208951692819233,0.359184233563654,0.298112952264119,0.2938452269705879,0.3226228566721642,0.33502344259782985,0.31136647174867216,0.33384655492721144,0.30844095135099414,0.3301398664966593,0.3167232927924177,0.320737058055315,0.3227342635581545,0.3347135584124532,0.31057764425770196,0.35781062900571625,0.36116449514900095,0.34398406007383164,0.3256028896790247,0.30673230474312546,0.31600567670697643,0.3096211019088907,0.30472211074066596,0.3421847020043022,0.31135437646147973,0.31043539291451433,0.323167963329143,0.32063418457294746,0.3336781801246457,0.33397414699823064,0.3317622268752162,0.31182111309136024,0.3158895409849417,0.3067343265795238,0.2995275981912817,0.3185106903296695,0.3388495232471581,0.36093554508580983,0.3217690845776982,0.3427709602993586,0.3241413288696614,0.3316394674749575,0.3593243676327312,0.3573101421545676,0.3149309132723891,0.3316615091004618,0.35570043603654594,0.35922671630757985,0.3241169315460485,0.3299186738708425,0.2983976322362907,0.3048181996794016,0.3051666674773688,0.31886233421656535,0.3080030466874393,0.2961108111108881,0.3457352546508236,0.34773633623609806,0.38031558241583424,0.3310645893130343,0.33791916343117145,0.33474753935937895,0.30067934124624013,0.3082459633273501,0.3586178282235344,0.34247862020921377,0.3346427501632637,0.31917568801698526,0.41791312114387014,0.327858000919172,0.31114117654275225,0.3097568139183553,0.35556775460832024,0.33385547821295813,0.3277791360982675,0.3480946492905971,0.30211516926260545,0.3312819573888585,0.3710265056366967,0.3311450438722813,0.31083260731792545,0.340971627010353,0.3077831356600388,0.3244555193446358,0.29917419755270813,0.32613435968463617,0.30748279230981074,0.3133845741347637,0.328463836842463,0.30313343941191073,0.3103748828562928,0.34689264365488903,0.3357913118956612,0.30969645596408213,0.3139308904704105,0.32322548209174146,0.2983424494278345,0.31730751408958674,0.3301843539303718,0.3021877841422033,0.3134058780847976,0.3305186646236593,0.35283753334830836,0.30537751234696225,0.3069165203279418,0.31610441432341785,0.33515039541316866,0.35052129033732543,0.32903011111696995,0.31986342902879655,0.3437957874126579,0.3472528330031873,0.32197699982464856,0.3355304964316074,0.3187345981666298,0.3000480491488159,0.37099531788351303,0.3169672459455829,0.3103880706768902,0.3134312458348392,0.3343498512867834,0.3228336249557406,0.3744760018902701,0.3828861326192584,0.33724494535127647,0.31127849148561587,0.3069412475594658,0.32119710461803,0.3036722198495635,0.3412520835622975,0.31836316945652426,0.38333465713898957,0.3365784278115334,0.3180137298111706,0.3234768128882636,0.3361003453100394,0.35276758585846224,0.3268864983557569,0.3368020380333552,0.3039099900292356,0.3355139943698042,0.3396446129782547,0.3114932668278934,0.33998458402917897,0.3359698169301662,0.3444429239188226,0.3176271267038399,0.31568285305835136,0.2975675588408311,0.32451175111855945,0.34565551568897007,0.3313321828425163,0.3426852540471261,0.3134815967470764,0.32491303547984324,0.3320698233153521,0.313040972177426,0.36330232088373793,0.34170871384989365,0.3001009909552432,0.32521783656049785,0.3388280968905984,0.33231427235837313,0.3147273594357093,0.3181505412219914,0.33377323800030445,0.3154786235745604,0.34669707553812723,0.3188619123806118,0.35543105833754757,0.30910620150214196,0.3033042294185724,0.2985998206439736,0.3168738086847762,0.33877452985818957,0.32186885452769726,0.3252156431105389,0.34196819921143645,0.33836724726249806,0.29908841382483164,0.3020739715394823,0.3468981342103302,0.3003702291038404,0.31619367177047286,0.3081122672058437,0.3076990480116746,0.32995763897321917,0.3175215358512443,0.34595511005671037,0.32582121011261117,0.36765535443452185,0.3175259204792569,0.305415819129223,0.3099631174398765,0.3321226926324363,0.32435228202295086,0.32160458960214067,0.3441844175379889,0.3336126153100971,0.30041101875562026,0.3165368076524995,0.37556376263482677,0.33436762599679926,0.34528991076419213,0.34653505520368344,0.33183411243425387,0.2997911242826515,0.33757996512375865,0.3349237547052503,0.32636294557511925,0.3189617355412032,0.3231419055625394,0.3231916347982518,0.30690665427020536,0.34652299187711766,0.3095434550300599,0.3426222018643169,0.3376821491376073,0.3160545592937971,0.32767901657143916,0.3296107383565892,0.31047351615221586,0.30317588158503406,0.31112936779195,0.3286706316419762,0.3208591639859323,0.3423355514855417,0.32995956824654915,0.3322442340079143,0.3264993379111551,0.3013273121640641,0.3058129553471328,0.3128468288236973,0.33337117769647767,0.3291728546326979,0.29621169082088133,0.3422968622580701,0.34804119117921006,0.32180956654904286,0.3103675166468086,0.32634549064716634,0.34147916464546246,0.3000150568182196,0.3300855397630823,0.3324418527063822,0.33185319001548474,0.32871035325068815,0.33942016365053146,0.3133514041188529,0.33420024179745644,0.3168223033487386,0.3317523232399096,0.3271774991904075,0.35459743558474194,0.30880974024259067,0.31088506612445166,0.33407576711024634,0.3159255414447254,0.3235983782521345,0.34880616988359403,0.3038138477940232,0.37708216646119375,0.3160050406731775,0.3337265553766481,0.3217483695159588,0.34557369508364755,0.3150260618495163,0.33084298266195855,0.33574224650589657,0.30790935569312256,0.3149291618561939,0.3134926236481932,0.3096522169020344,0.3180412136833321,0.30252578161440286,0.2985592434837131,0.3241658426736001,0.3149871299585399,0.3625318476470182,0.32303477241150336,0.3068619314891128,0.31480137284917775,0.3407885044668452,0.2977212912497635,0.32722504093282184,0.3015350084660462,0.3352792590024224,0.31550434535615746,0.3642001183643073,0.3116754346183255,0.30777296316001335,0.34396647551161386,0.30729658057125137,0.33550452510986817,0.3151607976685667,0.3399438912340762,0.3284367304769458,0.32582050867513124,0.4212282653102955,0.3137848320428919,0.3094820075475284,0.3691848508791518,0.35861945987102767,0.31647237577390885,0.3408677725714001,0.3849700743443435,0.316895911351411,0.3045866465021919,0.3041033237681838,0.32370144669674034,0.31012278932787857,0.3260795718294331,0.31957542089419283,0.32164353083549746,0.30067040909786835,0.32640244229893517,0.34949761471868224,0.32919945050119004,0.3013099687404191,0.34574659669259983,0.3581296458063032,0.33043216679952836,0.3010457387153084,0.3153945379830579,0.3416901483954939,0.33631370955305606,0.3196278026637916,0.35430080665232677,0.3498281232027759,0.30846157721394263,0.33037225107817947,0.36602630332263286,0.31185819036533335,0.3258426227704573,0.3246404580786144,0.3061983110328263,0.31952070087554285,0.37729425805257005,0.3283617971644013,0.30713994875725564,0.32811202553122665,0.32991915388876464,0.30585619631012234,0.32056491071593474,0.30679317363451314,0.38536727244934804,0.3119653409708654,0.3410660133596782,0.3532006262557422,0.3135945909360823,0.33296370997823443,0.3747511112041909,0.3287385725159112,0.29833763681580827,0.36699633988036384,0.33216540632277536,0.3361227558579905,0.30684207683672293,0.3341970539227289,0.3577089785742633,0.35204030482747084,0.400361353031818,0.3199402028435707,0.37322644754255724,0.34389459645821957,0.3055296107365215,0.3311089755577229,0.33409285229894026,0.3118658682138934,0.30655976163699405,0.3348556083985884,0.3570995180155556,0.31802050979008245
8,0.3250273196238369,0.322560217060658,0.31889801783899596,0.3380773317395245,0.3299702984157653,0.35222562804778984,0.30522146360782804,0.33060464661353883,0.3157675445118598,0.3389016441467569,0.35313734223988213,0.32325108117343676,0.3333312608324754,0.33364764578774764,0.36696545364765754,0.3533789658317842,0.3389116926862367,0.2998951825591471,0.31950865863933353,0.3477504066898935,0.30544694246840215,0.345460980539877,0.31724405100292,0.31439458261973224,0.34030271755090274,0.3781815287277003,0.3627385682205813,0.33379057138243645,0.30403807337519767,0.34452239526272044,0.31947490137313894,0.3366153391583343,0.30485691697229145,0.32023808958369104,0.32257530106362386,0.3416018439002802,0.31493437551020154,0.307448578620328,0.3493339639428428,0.3158287085134423,0.31060445475027454,0.3152919374393813,0.35440020361214836,0.33591418037447285,0.306090415177914,0.34341590692185314,0.3237448181499108,0.35371431296702166,0.3111012495531359,0.3328962501953952,0.30911492033898963,0.3432425907106832,0.3166748009602963,0.339934279068295,0.32555390836323883,0.3065247808514386,0.3266165831654141,0.3069559486880863,0.30991925487608696,0.3128847729930128,0.3371435643399895,0.3250168008776909,0.3269759063607784,0.3193197525979987,0.33418832065371173,0.342587658312599,0.34205186800631554,0.38963628925795757,0.33564163026524635,0.32082290951167214,0.3210372140163888,0.38829374875060213,0.3038659610766171,0.30770124995144454,0.32274566386912296,0.32029190062754054,0.3603585696389608,0.33755563725479876,0.33021628784640616,0.3168847163838119,0.3185811751262148,0.3268934858873764,0.30985649747565325,0.3393122850887617,0.32814223781357416,0.3334359761246365,0.33260462713869565,0.32796454016422305,0.32019377870922927,0.33096807078190954,0.3218188681034861,0.3728335749862467,0.3486864550415617,0.35826806504222714,0.3288838019161043,0.34120413057841203,0.32044242281042623,0.35669651951556824,0.3613828764771182,0.32356567944856174,0.3254410132836739,0.30262911251503527,0.32574614345347164,0.3329402917027331,0.3154944970898014,0.2968198937235978,0.37446932887454065,0.34978086724155577,0.35797848237739927,0.35287995235033254,0.3478982801869862,0.35406062519158155,0.3376962421010663,0.3332055562079014,0.32932199815364915,0.31580853333848713,0.32133697853771,0.329158821690075,0.36047675911920374,0.31795002830942415,0.32510928217365015,0.329446143001123,0.3796990500136045,0.3314168206914102,0.33548429119316436,0.3281479604701849,0.3279680017622178,0.31658360985337897,0.4269414012514906,0.31874390373314976,0.3005731923128086,0.3326892112032972,0.3244683258914754,0.3412664551916866,0.33125427390133677,0.3107654460826713,0.3501482575142342,0.3188260388098199,0.30542541716244365,0.31929740202670154,0.3200706566841637,0.31892269082536007,0.2936465411429969,0.34273503365842956,0.3389926502670334,0.3121858842821662,0.31550285833529024,0.3036522767145421,0.3129922891846226,0.32241723982092624,0.30387440559813894,0.3026128989497795,0.30148123841409113,0.30817303584012856,0.30402697987224825,0.3310632507525322,0.32431686006675425,0.3325306258199775,0.30212191575067,0.3096181569422208,0.30909209863942866,0.3130580065397034,0.3113167532333421,0.3276137427480485,0.34586067455620434,0.33978396327015215,0.3162319274991659,0.32674615130213835,0.3095456630209065,0.3702386552149805,0.35153877840776515,0.3041898756531317,0.36028072736177974,0.3328496818780684,0.3430387567021153,0.3282502154686291,0.31760476270978405,0.30738310369366645,0.3543509104259441,0.3031194651880179,0.3173197191464092,0.31470004244773475,0.3033838241405512,0.3396432769649828,0.34444293090247435,0.42516074838043316,0.313053571844983,0.3322561415646422,0.3529279386361554,0.29472792166616446,0.3086790800335003,0.35896258005767456,0.31832844647688996,0.3122843705355471,0.3136666407645544,0.3407137109853707,0.32761805652710224,0.3358880055110145,0.303018507888235,0.3970923694238261,0.32170527115346476,0.3257047195483985,0.3349232437323232,0.31701712522675235,0.3220770455445685,0.3262909146677427,0.32176944994274137,0.3532275025318068,0.3197193665362278,0.29256699222894494,0.3432405164873803,0.31084200540761037,0.3439280308605469,0.3498888407139471,0.32345979094573274,0.3151562402621793,0.31036794642227317,0.34037796343179105,0.341385952883443,0.3692972763084128,0.30323058602610964,0.32524958884713356,0.3363492258782707,0.3073367413955535,0.30688979332867833,0.35736970781081595,0.3223040872146954,0.2982508804373391,0.3420353931946549,0.35392751151374424,0.34971351967117176,0.33030464788760555,0.3376324556479695,0.3138050751487232,0.4111875568306127,0.3501357198742699,0.3241455439830401,0.39157059620099954,0.33942767700812937,0.3287534993159029,0.3494731057288324,0.31222675812636785,0.313177115769262,0.32034928385377004,0.30972821635256786,0.33139899401440437,0.31523273225569776,0.32905798470965164,0.31938258025717464,0.3209394147328022,0.3518951765538055,0.38015060483377194,0.29577242866524134,0.31696282689125493,0.3095323164479268,0.31595345929877483,0.36149451739994776,0.3311374219923232,0.3396239964777085,0.3228624563919329,0.30085745018102644,0.3548839930516122,0.33069491972790416,0.3319739839666082,0.3140774724681082,0.305729455012729,0.3100566718142695,0.37325340317616906,0.33108754883507113,0.31155194390852303,0.3248881799401934,0.34784260570423164,0.3030760635886765,0.3202009893755043,0.331907044867655,0.3187744029422048,0.3337219392175014,0.3293494383281049,0.3499103635735561,0.33594414689534563,0.3290890600130164,0.32890603420379966,0.34796788068658985,0.3394269586135962,0.2991189154348393,0.3296346942056679,0.3113677291412328,0.33968856484572335,0.3091302953203421,0.31737955868583606,0.2951116876399701,0.3035353158188695,0.3355622613371111,0.3465055521899635,0.3318847642117046,0.30635317804137907,0.38087211263765847,0.3300655210191399,0.3165285030381792,0.3212055683807166,0.35548553044818443,0.363188866730723,0.3092597542721877,0.31416611470014166,0.3256327504289504,0.35137818787032715,0.3227151624282915,0.311135931474643,0.3517462979619943,0.33253757339680945,0.3146962464329645,0.3148138843543118,0.31922435040783415,0.318849851301951,0.3191667683042146,0.3756768386944978,0.2949189352930847,0.35000965387171157,0.32935571032887,0.31778369122095695,0.31396520793358207,0.30945926901476317,0.3560535898998272,0.315911680138055,0.34491141882793125,0.3111375096314635,0.3391101032844033,0.3077240229910825,0.34157552115454015,0.337311891604484,0.3679270685909723,0.37114043314288525,0.36768372112509307,0.3374353350920756,0.3645617589506975,0.3466890597126365,0.31593746761256153,0.2975861573953001,0.3087162210630398,0.38367434140505385,0.3543283598196008,0.34334031364521767,0.3360921653802095,0.32625996468284746,0.31863246117267147,0.3610267123687062,0.3179467786909295,0.2992176854812364,0.3306727524388064,0.3570547690604061,0.33059507892210993,0.2984983408123639,0.3106849934070872,0.32457121199028466,0.2955595779643812,0.3522128065588469,0.36795157579946863,0.31269203254190037,0.35264205948365135,0.3288665898817801,0.32182780425051377,0.3186679432892156,0.3082552694480893,0.3296918047405934,0.3213116414898233,0.346692559879774,0.3272651522920411,0.32798207496752735,0.33034226287380586,0.31032367495173324,0.3121039178191241,0.3281174513556116,0.34407086113794494,0.3913531150326262,0.3395424951465775,0.330920057693188,0.3502555642632886,0.3158527421264813,0.3423153937602199,0.3724432632822385,0.3099323379182068,0.32189881627586864,0.29778626109273815,0.37198687761067745,0.31303459342277484,0.35984513498519316,0.3351257984261076,0.3094062588638697,0.359764510995067,0.3326763784475348,0.3332519288773335,0.31401079361070716,0.3300863609731294,0.3316774671546367,0.3253930496011519,0.3310460935544891,0.30965965321713307,0.3729107207281679,0.30517278798164027,0.31017204828201284,0.3369374281094777,0.30282737596493664,0.31271012010923804,0.3292492535942468,0.34244655779262884,0.37692178998550263,0.3292475020695349,0.32217143607651977,0.3032927879959683,0.32150815239203384,0.3012832565653384,0.34923429117382027,0.33694745154048344,0.3084649601931714,0.32492022930043163,0.3251387975446397,0.31082290484999353,0.33056056283810065,0.32486109250544337,0.31359144309772924,0.33918700952461056,0.30444356266826794,0.3107170777256449,0.34045769046078467,0.3031493260057371,0.37167387909255195,0.35092321506601476,0.3132638288433472,0.3218487092469516,0.3427672608715873,0.30125592389717387,0.31359752917581263,0.3417674954122126,0.2988607369107571,0.29496216851413404,0.320677707531548,0.3183042596455557,0.3045122183827413,0.3258248923204267,0.30757718848802384,0.3322601952837823,0.31973940281154334,0.30811613578597863,0.35255542927227335,0.32112587117534325,0.3379697550639421,0.3036151141507444,0.32402551831251303,0.3343924725797411,0.2944690012916058,0.3343976361244289,0.3341538406094175,0.31313441850395846,0.30457671101139794,0.32236334868934924,0.3800882511149728,0.3164229253387108,0.30930486228365606,0.35828071346847573,0.3254392879637485,0.3260854409253574,0.31382337506238234,0.3060883452931551,0.3091642963455778,0.34749232854377543,0.3589789626057943,0.31426650776401716,0.3228055010385435,0.3142066424489082,0.32997624368564565,0.3054038182464568,0.2978057926725396,0.3420584759491311,0.32575766098494224,0.3276044904025443,0.31797961961610344,0.325292111001927,0.31991186286526807,0.35286646682457945,0.30670793589446516,0.3094884843897962,0.3428461308738802,0.3206654099142599,0.3277978817474138,0.3171479430621468,0.3398084822191108,0.3392639585087244,0.3691608901699483,0.33465303631297877,0.3180166112397401,0.3706000849162771,0.36436282874086606,0.3136974736808737,0.2991636128682981,0.30989674197832756,0.34010143096965295,0.32854677381654196,0.3272882238277139,0.3086578549733797,0.35757173314913215
9,0.3182909448960515,0.32054655694809975,0.31107363063138604,0.3472067284815909,0.3225576234930273,0.3418915942362123,0.30620254462527174,0.31880189484365296,0.3062693087181551,0.32262958474837544,0.3321005144683798,0.3110664907278404,0.32515735169914556,0.3441548544670383,0.32202819675099137,0.3482505246755871,0.3530171844836242,0.31993210932545835,0.351552417218742,0.32720529379753144,0.2996244870980648,0.308600282322521,0.30761978042911936,0.30502104029404636,0.32140416926972926,0.3399626471547412,0.35248873904865063,0.3173340067308271,0.3173789870415491,0.32463934866773014,0.3268905265461106,0.3176221314634632,0.3203029775814604,0.3219856539717149,0.3132681741787301,0.32607467823284186,0.3229900198363119,0.30076976512388487,0.3242803839351698,0.3301506402421628,0.38223029417403814,0.31164687335882824,0.3345176045961142,0.343500996726953,0.30985987040597185,0.3314877286278741,0.3577210882459675,0.3433329673127093,0.3117369426847284,0.3278350054949791,0.3139392108706743,0.33478746190544456,0.3043178169783826,0.3388836132101782,0.331882203944445,0.30752855629139964,0.3175695831925084,0.30695794266968085,0.31606347481810443,0.30374849746679394,0.3013940647421985,0.35963111932724773,0.3242656275618241,0.32435230466448434,0.3529964006286753,0.32314314344079953,0.31137570841970036,0.4027183540117335,0.33952915591955135,0.34610033409985985,0.31236952462038126,0.3281847935082165,0.3255820777900879,0.31897204652045286,0.35500702427808034,0.34679254778707563,0.3445051451891343,0.3859725604703464,0.335863463408389,0.3237326227177883,0.3099304685915977,0.3123675246336279,0.30584360001149574,0.3165901265918369,0.33990691437782944,0.30723465501359426,0.3328218448396657,0.31606311535087067,0.30510216691105524,0.32225619312834747,0.34768825098886563,0.3744217855946047,0.3540758462528881,0.3581216694569858,0.32068263422433346,0.36225112620658695,0.32033727496852715,0.3176278094657142,0.36352301120184805,0.3183013692772343,0.31317148509534765,0.327910392863354,0.30589075217337364,0.31903721747391434,0.32593150218190975,0.4033947689927044,0.3308425798482691,0.3658995899587099,0.3603444772974031,0.31305672147744923,0.4046188660044471,0.3591381412936474,0.31037222003839876,0.32631780641943553,0.335661563002076,0.3104357759532102,0.3275808441245363,0.30975109520798194,0.3413024099737534,0.3185912434978072,0.3216885237964626,0.3136342418750294,0.33835557067217703,0.3222499056548599,0.37308463340345843,0.333459893847765,0.3524453670109942,0.32903025182116974,0.337193320519488,0.3098159877951773,0.29524509861858694,0.33147616095951704,0.3304467389744038,0.3355511110513806,0.35814955850844366,0.30452054109127424,0.3672910271237588,0.33495575772089575,0.31914076832132643,0.3585993463525875,0.33016792742218026,0.3223734103926207,0.3225067002308285,0.3172910003101949,0.37853753451030175,0.3318467561336297,0.3070741926755437,0.30712125794122824,0.30263531805110044,0.3065253425036796,0.3103056117124939,0.32893854269873557,0.29884777577393384,0.31909734222479064,0.35028357323171755,0.3238928100887425,0.3110729346787514,0.30267881560195675,0.3214690134872213,0.3027029202193689,0.30713065350766044,0.30066384838272003,0.31585625377350346,0.3590286394512308,0.38530891491877445,0.34320871029428635,0.3277253159627039,0.3265318029833885,0.35403102145397103,0.35758929481722757,0.33876014004053373,0.30585348423487824,0.32952298173626876,0.3213965845662401,0.3441546358176768,0.3408719157042002,0.3226922546863471,0.31357185771824525,0.34151850014168245,0.3274734384036319,0.32962480319506754,0.33374677499784744,0.30731183191660166,0.30658750605631013,0.377213361379204,0.3464498110099682,0.3276577144938727,0.32186097590289775,0.3607573994632004,0.3027163373719378,0.2933895932361382,0.37291576169599305,0.3381689409010509,0.3265328627737727,0.32438983755651074,0.3199026224831433,0.3567563343195056,0.302331934340286,0.32221543847302375,0.3883269496565488,0.3488954524829138,0.32892408718916183,0.31228188082417735,0.3145384005848989,0.3455032876941493,0.32359135803869077,0.3241650760977322,0.31723424693720054,0.3311686689223922,0.3033270407046561,0.3631105156851293,0.308229863109772,0.3431937660720114,0.34704944676661464,0.3499458982785383,0.2935002800228246,0.31696683744107984,0.3104058230470001,0.3295731491404633,0.34367288555562003,0.2916601774875909,0.3133175791542703,0.33041957762810836,0.3202067271718584,0.30473603570432495,0.3115645988613997,0.3336972524125127,0.30056530424401184,0.3458746934571451,0.3522089598755067,0.3220947430733182,0.30898342557865127,0.3569519133630649,0.3199742761289892,0.37433985392475455,0.3396966988592564,0.33775257224020017,0.34643817006550354,0.3043560622662017,0.333093519794751,0.3160772757526097,0.33036876107188695,0.3084287392303021,0.3192934864820002,0.31137047087605824,0.33333620354562593,0.317822091420035,0.3298149290396841,0.32237413633682277,0.3417642962024551,0.35944593857034735,0.3194812888881535,0.3251855989631769,0.31495837968036666,0.3273582546284678,0.31752026041812553,0.3443397845850778,0.32311434305457265,0.335782797713468,0.3287408061081199,0.3052928220318772,0.3314665953787906,0.32929483809925364,0.3480530214298059,0.303918171629634,0.3174793629363989,0.3179195360928455,0.3375325313444482,0.3447260239421004,0.336851235496556,0.33379133889852686,0.380002649067127,0.30811040347424024,0.323228173612764,0.3561438477346827,0.3185409916753088,0.3218208828637053,0.33153140976188544,0.3431294279851454,0.3324175972409395,0.3139197161043697,0.3415605163251604,0.3899687827126598,0.33134760221407916,0.3357366888386849,0.3133832711497751,0.3102224222404509,0.3364001902584395,0.30516762307256207,0.32461712075964483,0.34186880658093977,0.3057828525927545,0.36024602740790607,0.3672195506200662,0.4001683047676473,0.305379125246761,0.33075357676400563,0.3340214722662627,0.3267231935439764,0.33353309406218434,0.32181549204303395,0.3686115446555145,0.3254407565455434,0.31752989233771467,0.3302803472079273,0.3515839678649104,0.30904605595510365,0.3110081645333699,0.3496597382014862,0.32500151957108564,0.31927592538866845,0.30101289755871713,0.32287339555849465,0.3284838343510376,0.3193175444210282,0.35569467171246805,0.3137292727118891,0.36791090898067996,0.3209204806776472,0.3170272149015719,0.3161603841465055,0.296903845672718,0.30878517827818974,0.31785355460478565,0.35405432747763693,0.3339690987748631,0.30678552782708995,0.30215498420299514,0.33779827935136175,0.3346115811958721,0.3631201041394158,0.3553352500768448,0.30696516170428584,0.33100374672231153,0.32139742136930377,0.33187088865753445,0.36552928891970277,0.2957147535253729,0.31140639215282795,0.3337204564631414,0.33426292302076843,0.3426681708210613,0.3297298827650286,0.34292156225683346,0.32397569709792867,0.3118479288167485,0.3586348538366179,0.3266713084388592,0.30918112355967386,0.31104364339081225,0.3160033379428897,0.31922633674751283,0.3085141262353026,0.3254912089987144,0.3116504866617593,0.3538863787672014,0.39463582237441297,0.29092358703052923,0.33257134840847524,0.29928084814963385,0.3156180798216983,0.33667906316147417,0.3313182839595413,0.3033448918157146,0.31468031379436956,0.32811813697179837,0.30705538983402775,0.29878902141431884,0.3481461420374922,0.29506341024469557,0.3076441849490494,0.29504622754582643,0.33580770891536915,0.3264090679364652,0.37033495800936117,0.29410357129979525,0.3448297293578568,0.3056568348268222,0.32983115441447286,0.35576967273408827,0.34556962404838887,0.33400349627784054,0.3113171245783617,0.3247620797818889,0.3152219180980854,0.3190678132607102,0.37262591032982406,0.3223028968312088,0.33582306428811776,0.3478340618343935,0.3166884362408285,0.3415946156055024,0.32963445464716634,0.3105624591889161,0.29693319811034413,0.32240178019437715,0.3537773187829239,0.32845665076556885,0.3241861257257025,0.320402539171985,0.3202571399174018,0.3159534284155311,0.3226036455562368,0.35552690118890024,0.31017775794701546,0.36074361679348116,0.30223446060368653,0.3090614004437716,0.3120100814675604,0.3554861930020703,0.2996437344856915,0.31260030867473676,0.3558670295238895,0.31396162513918874,0.3136320739836382,0.3227517440698512,0.3038646128340728,0.3326333485550535,0.3241252116219241,0.31546510236499875,0.377647503726696,0.31409944229937115,0.31666841125009076,0.30729076108846476,0.31063838006657074,0.3433730681543331,0.34487975562376894,0.37212635511704073,0.38413318388960555,0.3853272235516065,0.31795277367915775,0.32466365389801133,0.3056537429036307,0.29960609111500364,0.31792774611919505,0.30680306265966684,0.37943718771816537,0.307031108349823,0.3244132907047798,0.3224245428605367,0.3442280768488188,0.3386777675445206,0.3415074869393028,0.35006601322003855,0.33683057213049533,0.31632939352902606,0.30834561799576116,0.34662129187015484,0.32291230632611845,0.3296766818982957,0.3305118284935036,0.31634324348443454,0.33735625451579765,0.3258099128781147,0.34630942051559344,0.34238662108969015,0.31817517550009866,0.3197298387771178,0.41777813311413314,0.312339042655641,0.33091431599183024,0.31120281671792055,0.29977380521271224,0.32167462905195704,0.3508644024297888,0.34761099298854176,0.31465129904436034,0.3366630111984606,0.31182654583041247,0.32983316406567054,0.36016037255565136,0.3125490876594375,0.36874726558173837,0.3245638304952779,0.35113714573924093,0.365211163028323,0.30485209025596643,0.34227969644476297,0.35846985183348773,0.3016028327750087,0.2976235830974407,0.3460178900647691,0.36061797566930254,0.34640685192984194,0.3255067810955038,0.3357362803913479,0.3422595919562718,0.35174839832787574,0.35730554196343045,0.3224847557886644,0.36739132329813684,0.33771567902354616,0.3113645409993345,0.3132473584919009,0.30852310101518404,0.36087671818170264,0.334935660571585,0.3167854844775656,0.3351189488262381,0.3148358725239918
10,0.33142793746435106,0.33413786589293515,0.2957220662719391,0.34729371342699455,0.31878080945834564,0.35448155068839904,0.33828811208042164,0.31888150443570357,0.30963988515075935,0.313208737473027,0.3306719086939164,0.32415150467108306,0.3516627028483417,0.37093795960780623,0.3379535826609339,0.3651540109472453,0.37381952951128444,0.3189166070820379,0.3405384959792687,0.33857906096433166,0.32851649280012296,0.3041298323454978,0.3205502404355046,0.31643928728248927,0.31835043565166554,0.3340046137939488,0.35688398267036037,0.3306033187975062,0.315119012618636,0.29353123755270333,0.3101454214537321,0.3672021235904019,0.30514379630385413,0.3520134776564584,0.3380914302865865,0.3095794005418957,0.30336954994025855,0.30733935239131416,0.4298436133638899,0.31245632735173934,0.32747281506784004,0.3071559560270179,0.3238503257228116,0.388641521225672,0.3138314627731535,0.32133924512245177,0.32164042729242115,0.33694760479938435,0.33474028831535174,0.32107087295016246,0.32551512704642066,0.3801051658989191,0.30683515030938213,0.3640497585814263,0.3235171319230712,0.32620974721938695,0.3139544652747056,0.3193724348473361,0.3112813374860205,0.3159399600347789,0.3118769984640945,0.31377088670280406,0.3296514971535564,0.3133467062153434,0.33294322746387084,0.3324106630478965,0.314774845023709,0.35552861909516736,0.34149775096651463,0.31087282878749184,0.3051973138483802,0.371916399199164,0.34550552745957164,0.33369713918056954,0.3863951634947605,0.36040348999619415,0.34142144887988235,0.3222990612913745,0.3576894991892116,0.3128875485904864,0.3180982102908927,0.3136808495630722,0.3243808443523161,0.3423212385365507,0.36119604747560174,0.3153137650435781,0.33493435796718096,0.3179260946203903,0.3706940648428823,0.312706659678525,0.34574875237057406,0.3906252823527542,0.35869122918472074,0.3803741358019372,0.34005573602029027,0.34903475742117973,0.32912129327249684,0.3464928247924003,0.4205073901729254,0.30310036212113123,0.3123298040305694,0.32150135733343216,0.30479541566991736,0.3033240806942373,0.3426114848656759,0.3276851418266041,0.3340301821005104,0.3542361427453254,0.36746114289008863,0.36709310642205784,0.3294074036676131,0.3184643121298064,0.32382982395664384,0.3292650581744917,0.36958526384999313,0.34190516287137784,0.3191223854340223,0.36441107493200786,0.3598313582015706,0.31107148091090253,0.330635418775728,0.30069228333423953,0.3220227024217166,0.3749944002141361,0.3501216776904469,0.31929555369712626,0.3638225349866926,0.3186814816443463,0.3422884985046829,0.30435145312469036,0.2942583187040404,0.34159232775761295,0.3331178703021179,0.31115860739196705,0.33936322405737857,0.3006866477657696,0.34182212274366586,0.3077991838120159,0.3021900720800056,0.31270165684960294,0.3246340674059289,0.3445096113715399,0.31572378780889815,0.30143552585998595,0.3241371008653851,0.3181183930129191,0.3179250239497833,0.31324506955361586,0.32227818868582025,0.30601853099463444,0.31937192417330046,0.32141575583771975,0.302557852329804,0.308820471910991,0.3465508034969858,0.32657528354610565,0.3315695435024021,0.30445973848887464,0.3239543704615274,0.32876236556588645,0.3171915197075602,0.3080963090399666,0.30761954527199453,0.3347509400151184,0.4149655973146789,0.3249808734793166,0.32481357485033363,0.3149117461553681,0.30168240531649476,0.35166546020581585,0.3601708604059895,0.3148432618397041,0.33228000372679606,0.3345417903811537,0.3470197177376989,0.31767206754435773,0.3117337457787068,0.3169793183638921,0.3099183717527062,0.3333250925182211,0.335587032170815,0.3177592134690317,0.31798473263498916,0.3169494866396606,0.33155078311088665,0.356729641880325,0.32099744736382524,0.3360138400561192,0.3273504414653146,0.3110803894954276,0.30928053712219883,0.36628943506194844,0.32470049807017454,0.3235190874040443,0.3361125479770119,0.3279905551767507,0.3190653185549185,0.31949817987033813,0.3058902201765233,0.39538288328422666,0.3163002462333335,0.34184149369429884,0.34284556427194957,0.3182521995146108,0.34956584302296023,0.3857478714860461,0.32749729315050335,0.31755520828589995,0.32996446860014617,0.30680844222416315,0.3245501059857126,0.3032220326065264,0.31993539165371987,0.31318026262769466,0.3257386421462475,0.30828830394181794,0.30186435209327506,0.30399655295267836,0.3413936504448059,0.34247569606205813,0.3071871047756891,0.3140536970617997,0.3229522917682819,0.31334915961811693,0.33152146339667093,0.328377984915888,0.32442201669414306,0.3054813289480174,0.32416672008517905,0.3722459794989995,0.3450823073314925,0.2918879357980203,0.3419403268802612,0.3291285357604674,0.35428791277114335,0.33575776197343044,0.32755554270000253,0.3545413760983604,0.30354717536667725,0.32523387934227904,0.37010282164402886,0.32127675022070357,0.30113220892022063,0.305304263954003,0.31961634772005454,0.31884347909439364,0.3169266002079926,0.3233661949499635,0.3193105351594001,0.3159671054879597,0.37002724122978176,0.35365849992099496,0.31489020662652495,0.31588810180747956,0.3208047867523504,0.3219530744402251,0.32822842200724334,0.3248453004754888,0.3537842067808932,0.3239057982397932,0.3161698412602507,0.3206637463615354,0.3118442658885588,0.3514660169541616,0.3379009351571531,0.33894402033781806,0.3068355830032735,0.3430997677986951,0.33743207617580634,0.345035869303079,0.33601423019754545,0.3248680016913949,0.3213595644837423,0.30167214836334744,0.34462790304551094,0.3072809279541929,0.31359445254400803,0.30494689719628515,0.3255751993498153,0.32496170085597714,0.32030883788771114,0.312036310568895,0.3580302211649191,0.3572995017180872,0.33736349144220973,0.3163088154557942,0.31514663416710453,0.34611641659124803,0.3040240088033791,0.3273597663733453,0.3363585698773127,0.32185656553739234,0.33008311015776504,0.31385849520960335,0.3305568744093207,0.30884973301250745,0.3503986178369908,0.3269503010327206,0.3251773110619438,0.33267313092647444,0.3046013197934092,0.3341316699266111,0.3369273098593498,0.347921475961378,0.32400262870271695,0.3504649347998249,0.3189911701038653,0.3131880702322934,0.34077289090426444,0.3424892716549799,0.32404176640425236,0.3040251079663665,0.3012227731948849,0.3306026694656387,0.3484187661868746,0.349442788017665,0.30601978324793805,0.3463708437780031,0.3730477546485006,0.31637492158346175,0.3005454490045352,0.2987876428442052,0.3570644855514152,0.33346209846555136,0.32964800878199785,0.30320387531880494,0.3127374890029613,0.30658104378679435,0.3912558361343009,0.3380774030249921,0.3460521057910263,0.35342804428683416,0.32396174093625896,0.31703208308045105,0.3668884750142147,0.3509411902821068,0.3300979357585292,0.29198520050611576,0.34435041831934793,0.3317060741374739,0.31886955255787464,0.35573521748274317,0.3154104642403891,0.30930319100770254,0.40204749928391986,0.35847931952215284,0.33592774906957656,0.3478738197094377,0.30565757489081735,0.2975912043872023,0.30925816814994367,0.320145902285475,0.3036176624978201,0.3048626481009534,0.30126213812539804,0.3691138881668323,0.3529915376637835,0.3133339862178053,0.3138746285801661,0.3288834687013789,0.2998940868164396,0.3389929511863109,0.29935972439118996,0.30753503022267487,0.31188837458131025,0.3718517534353902,0.3250507001165637,0.3159930112251489,0.3688519396001586,0.29414882555684746,0.3096142238494494,0.3099503438364625,0.33516913488163214,0.35684110978997674,0.33404623486520396,0.3054953834161085,0.33910632137199914,0.31004775018971353,0.3207373178329447,0.32937153307345046,0.3339536250595045,0.3445382207775277,0.31808166831579293,0.33058207475528684,0.34692827564691625,0.34922989962835765,0.3729788774981546,0.3038797302403094,0.34417569816332094,0.3539486398238577,0.32859608096514303,0.31784241861753665,0.33567355250322567,0.3327631698378756,0.30724490385747427,0.33057410873266707,0.3309842973094288,0.3359579489126642,0.3238888232054281,0.3106960685142028,0.3099380375710973,0.3017548578249335,0.2985378143672873,0.32777840406852565,0.31985241155632044,0.3735109780899765,0.3112585952596155,0.31843090430251075,0.3022475900376126,0.3254339757237622,0.3095086108344366,0.32264518391270564,0.34084940815763687,0.3282919129762093,0.308359390990062,0.3237615883673425,0.30168524850702244,0.3320669340925736,0.3455052799681734,0.32391811785281005,0.3504849824468297,0.29693806403800466,0.33669990708378955,0.34174286385848995,0.33576864515585453,0.3483261889651553,0.35303304370877725,0.326139731943519,0.3444487225664062,0.3686581832761093,0.3075881278260685,0.340327322258361,0.3517928569587998,0.3304883021362154,0.2905272700987493,0.31888108854470454,0.3224288629810668,0.30388996400483836,0.34286098116992664,0.3140936168427622,0.3194206666461224,0.31851962428309577,0.33006108389490396,0.3315853125323801,0.30884449209554243,0.3256521156713207,0.3231581613456899,0.35705213018408477,0.3337890516829902,0.31056514007157465,0.3150122859184751,0.3143811149908019,0.30629680791279845,0.3253348041935094,0.31619754918476023,0.3626989308733357,0.3024505259371038,0.33078790936149394,0.4046731420468029,0.33636888206737964,0.33405854690687226,0.3120004847990473,0.3134105295534674,0.3324958435177636,0.3421796459045955,0.3742283873078856,0.3482659137903623,0.31259640144259937,0.3154727361516566,0.31582106024486,0.30594163880212866,0.338781947565021,0.3268537934043768,0.3593467643591903,0.32594701522506403,0.36441963015018347,0.3254098625228579,0.33420978608610363,0.34410246314114623,0.2966493685504252,0.30036683597963887,0.35159671246770724,0.3406618982911493,0.3408141152186889,0.3178741612978576,0.3274487775855778,0.3415831162586647,0.33131941507450435,0.32772761029738856,0.3508735186475226,0.4019077279491626,0.37257159370940857,0.3233729115268359,0.2981304224796565,0.3266090949568468,0.3384936064647749,0.30753704914216595,0.3438632330161521,0.32986542323626106,0.3288560421105374
