t,rep_0,rep_1,rep_2,rep_3,rep_4,rep_5,rep_6,rep_7,rep_8,rep_9,rep_10,rep_11,rep_12,rep_13,rep_14,rep_15,rep_16,rep_17,rep_18,rep_19,rep_20,rep_21,rep_22,rep_23,rep_24,rep_25,rep_26,rep_27,rep_28,rep_29,rep_30,rep_31,rep_32,rep_33,rep_34,rep_35,rep_36,rep_37,rep_38,rep_39,rep_40,rep_41,rep_42,rep_43,rep_44,rep_45,rep_46,rep_47,rep_48,rep_49,rep_50,rep_51,rep_52,rep_53,rep_54,rep_55,rep_56,rep_57,rep_58,rep_59,rep_60,rep_61,rep_62,rep_63,rep_64,rep_65,rep_66,rep_67,rep_68,rep_69,rep_70,rep_71,rep_72,rep_73,rep_74,rep_75,rep_76,rep_77,rep_78,rep_79,rep_80,rep_81,rep_82,rep_83,rep_84,rep_85,rep_86,rep_87,rep_88,rep_89,rep_90,rep_91,rep_92,rep_93,rep_94,rep_95,rep_96,rep_97,rep_98,rep_99,rep_100,rep_101,rep_102,rep_103,rep_104,rep_105,rep_106,rep_107,rep_108,rep_109,rep_110,rep_111,rep_112,rep_113,rep_114,rep_115,rep_116,rep_117,rep_118,rep_119,rep_120,rep_121,rep_122,rep_123,rep_124,rep_125,rep_126,rep_127,rep_128,rep_129,rep_130,rep_131,rep_132,rep_133,rep_134,rep_135,rep_136,rep_137,rep_138,rep_139,rep_140,rep_141,rep_142,rep_143,rep_144,rep_145,rep_146,rep_147,rep_148,rep_149,rep_150,rep_151,rep_152,rep_153,rep_154,rep_155,rep_156,rep_157,rep_158,rep_159,rep_160,rep_161,rep_162,rep_163,rep_164,rep_165,rep_166,rep_167,rep_168,rep_169,rep_170,rep_171,rep_172,rep_173,rep_174,rep_175,rep_176,rep_177,rep_178,rep_179,rep_180,rep_181,rep_182,rep_183,rep_184,rep_185,rep_186,rep_187,rep_188,rep_189,rep_190,rep_191,rep_192,rep_193,rep_194,rep_195,rep_196,rep_197,rep_198,rep_199,rep_200,rep_201,rep_202,rep_203,rep_204,rep_205,rep_206,rep_207,rep_208,rep_209,rep_210,rep_211,rep_212,rep_213,rep_214,rep_215,rep_216,rep_217,rep_218,rep_219,rep_220,rep_221,rep_222,rep_223,rep_224,rep_225,rep_226,rep_227,rep_228,rep_229,rep_230,rep_231,rep_232,rep_233,rep_234,rep_235,rep_236,rep_237,rep_238,rep_239,rep_240,rep_241,rep_242,rep_243,rep_244,rep_245,rep_246,rep_247,rep_248,rep_249,rep_250,rep_251,rep_252,rep_253,rep_254,rep_255,rep_256,rep_257,rep_258,rep_259,rep_260,rep_261,rep_262,rep_263,rep_264,rep_265,rep_266,rep_267,rep_268,rep_269,rep_270,rep_271,rep_272,rep_273,rep_274,rep_275,rep_276,rep_277,rep_278,rep_279,rep_280,rep_281,rep_282,rep_283,rep_284,rep_285,rep_286,rep_287,rep_288,rep_289,rep_290,rep_291,rep_292,rep_293,rep_294,rep_295,rep_296,rep_297,rep_298,rep_299,rep_300,rep_301,rep_302,rep_303,rep_304,rep_305,rep_306,rep_307,rep_308,rep_309,rep_310,rep_311,rep_312,rep_313,rep_314,rep_315,rep_316,rep_317,rep_318,rep_319,rep_320,rep_321,rep_322,rep_323,rep_324,rep_325,rep_326,rep_327,rep_328,rep_329,rep_330,rep_331,rep_332,rep_333,rep_334,rep_335,rep_336,rep_337,rep_338,rep_339,rep_340,rep_341,rep_342,rep_343,rep_344,rep_345,rep_346,rep_347,rep_348,rep_349,rep_350,rep_351,rep_352,rep_353,rep_354,rep_355,rep_356,rep_357,rep_358,rep_359,rep_360,rep_361,rep_362,rep_363,rep_364,rep_365,rep_366,rep_367,rep_368,rep_369,rep_370,rep_371,rep_372,rep_373,rep_374,rep_375,rep_376,rep_377,rep_378,rep_379,rep_380,rep_381,rep_382,rep_383,rep_384,rep_385,rep_386,rep_387,rep_388,rep_389,rep_390,rep_391,rep_392,rep_393,rep_394,rep_395,rep_396,rep_397,rep_398,rep_399,rep_400,rep_401,rep_402,rep_403,rep_404,rep_405,rep_406,rep_407,rep_408,rep_409,rep_410,rep_411,rep_412,rep_413,rep_414,rep_415,rep_416,rep_417,rep_418,rep_419,rep_420,rep_421,rep_422,rep_423,rep_424,rep_425,rep_426,rep_427,rep_428,rep_429,rep_430,rep_431,rep_432,rep_433,rep_434,rep_435,rep_436,rep_437,rep_438,rep_439,rep_440,rep_441,rep_442,rep_443,rep_444,rep_445,rep_446,rep_447,rep_448,rep_449,rep_450,rep_451,rep_452,rep_453,rep_454,rep_455,rep_456,rep_457,rep_458,rep_459,rep_460,rep_461,rep_462,rep_463,rep_464,rep_465,rep_466,rep_467,rep_468,rep_469,rep_470,rep_471,rep_472,rep_473,rep_474,rep_475,rep_476,rep_477,rep_478,rep_479,rep_480,rep_481,rep_482,rep_483,rep_484,rep_485,rep_486,rep_487,rep_488,rep_489,rep_490,rep_491,rep_492,rep_493,rep_494,rep_495,rep_496,rep_497,rep_498,rep_499
0,0.30362533865746727,0.29197842961048764,0.33058443765448586,0.3057322158541349,0.3161747951466288,0.29345055348206806,0.30985368057843515,0.3103008930270638,0.30303456239303095,0.29575797459783526,0.3065802218252154,0.2954917869048481,0.30816579636226776,0.30921029560972724,0.2923802359353498,0.30038825026752136,0.2921854435373151,0.3216799849600815,0.31212416147341204,0.32041090269801026,0.3158547961982188,0.3088344281960421,0.2915657507654744,0.3732786574763378,0.2968833056430236,0.3261925400015678,0.30582953833750914,0.2951968867467071,0.29311767030359553,0.30187000794589597,0.341277388141708,0.30402726378471157,0.3288867690121421,0.3247042094938538,0.29544897084473093,0.2949541990273545,0.32315818800635865,0.32249744561431415,0.29526890174852205,0.3193354680172754,0.2928933155041692,0.2961347437438942,0.3126822565526103,0.31843418290925907,0.30670738399177766,0.3232962187947838,0.35052141168702966,0.30443788742851813,0.29703645926475136,0.3092827291401784,0.33918184106037125,0.29183873691553586,0.2956282233350367,0.33030082138961375,0.2894887990402122,0.2901558724483355,0.3241062361691668,0.29818149679109546,0.32178619503692174,0.34003921536341786,0.3056639711268851,0.31239112171377137,0.33133175313502333,0.29610653628853567,0.30355597559160663,0.29409672412761934,0.3409946574535477,0.2907229564151034,0.29056221495206824,0.29405738835917195,0.306246377023356,0.3041839783955492,0.3000737968905304,0.29870380082479475,0.289047358927888,0.34664723892123356,0.2993566374261828,0.3376938771250121,0.30102544749500165,0.2975443297849962,0.3207360075332366,0.3461852008655649,0.32365525157976205,0.287421235963001,0.3278470499213317,0.29398489437139974,0.29894600316013403,0.3043808294014389,0.3170798867617318,0.2960343220999312,0.30395589638269,0.2963675549768246,0.29466879752196534,0.29358822528086226,0.32313412655856394,0.3532701221677744,0.31944844765725744,0.30230477042726284,0.31619282537403215,0.3075281322068399,0.3064546212910163,0.2994543746317472,0.30491776452160435,0.3046780557549395,0.3602157058733916,0.3242909915587413,0.293257794273985,0.2892655821708129,0.2969573328533645,0.2846117411638495,0.29854466047722983,0.29887183494919517,0.30856474112773025,0.3119514094397999,0.32513224566558757,0.2934542742355347,0.2957130839655225,0.30336549640511346,0.31426584532934504,0.3212971623260767,0.31927492946778735,0.3118530290567506,0.29683278372047184,0.3014506274964385,0.30600754367534305,0.3330617472277809,0.29255745958621643,0.3250642134953459,0.29824547719189104,0.29882619829912527,0.3316417592480523,0.3172386752505785,0.3158355720342845,0.29481016010802774,0.30003085261393164,0.30513881000979703,0.29378836505938266,0.3355962239661216,0.3362088746514486,0.30087353976154807,0.29551173269708153,0.3061004412211096,0.30587411513020213,0.30530912555408485,0.31400270843688677,0.3094303780466504,0.3017033005155242,0.320853841785517,0.28475000217274704,0.2974240945370439,0.32991044112854173,0.3030182724731259,0.2878180881018348,0.3160922020740937,0.3289594507212418,0.31196512566030427,0.2999206091838634,0.30821233635329104,0.3045094407492256,0.33370524909250243,0.29252177089827397,0.30027322651066046,0.31370990956679434,0.32436919990630575,0.2988601542414238,0.3041415183940193,0.2918952361614543,0.32358906411487764,0.3024134708492494,0.29429836558815514,0.28695082300847224,0.31306872230744515,0.3229566763664827,0.30295660563572324,0.30337477520952094,0.30680688816295343,0.31899068494536476,0.3199659594528983,0.30892454276404724,0.3048277967882231,0.29070205089574835,0.31244373772592643,0.292545573228921,0.30851354445143786,0.3299359809611532,0.30083322346332564,0.3312435200349693,0.3020963403614046,0.3140992356713873,0.32113721120891914,0.30776692272700135,0.2875059331519989,0.2909460894638597,0.3007523959307492,0.29802947711349725,0.32400334837118305,0.3394431737254415,0.30436886413822783,0.30590634631042,0.3239308069170449,0.31015870201380424,0.298975979214854,0.2918136565243479,0.30386091704374285,0.29330393119935333,0.31314235520756345,0.3130720305780535,0.29958603833048325,0.32911740213385443,0.31878561384380194,0.3268294648316719,0.29331511598973786,0.3111421014993541,0.2968970952301437,0.31049279225900894,0.305641074677012,0.3046844591611252,0.29080875613242274,0.33352919881616294,0.31999964070906184,0.3243739680330343,0.3041378264763043,0.32106776177667407,0.33746536495538926,0.3251619769613454,0.2948169509465414,0.28948024617863355,0.33338311589594405,0.299786852443006,0.29574594951219113,0.33225307131768766,0.3067454031868622,0.32333612514199694,0.31330200080888243,0.3045052639184282,0.2990351898615883,0.3158103639869612,0.303444331010916,0.29366357800002835,0.3006018196190975,0.33489806657021715,0.3042625666658433,0.2937834834300715,0.3020147998664034,0.3077905134347466,0.2977495860049086,0.3141677802183481,0.29812332819045656,0.2956680075505448,0.31731724163605757,0.3023795995910374,0.3530935767253334,0.3171478496764578,0.3103571576433835,0.3083426551876164,0.3396559264111649,0.3019916981067233,0.3453554389277801,0.30484684249044597,0.31593658810341313,0.316672650406813,0.3015394882657795,0.29620075839286775,0.3006758389321293,0.3289319605031577,0.29606283643166714,0.2906634584318592,0.29992568227913863,0.2858240595316578,0.3009839201549741,0.29110771282891057,0.32591937362812,0.2939184466602941,0.31559891645367755,0.2973214960514468,0.31239118768949037,0.29132451273551885,0.2918076826718462,0.30643567938776456,0.3015763417004581,0.2931761966607975,0.304704224655938,0.3167256587000775,0.30902095380839373,0.311642272683732,0.29404280238159797,0.29137126695906423,0.3232948647366149,0.3064108303096565,0.3232608072372931,0.30712004289882155,0.2959525382623142,0.30592686489339416,0.2941116905551783,0.31660854142885286,0.31259473236542046,0.330795894210399,0.3164514847927748,0.3441692139400115,0.3173213906379858,0.35399933556975627,0.2871309849108041,0.3269266371021034,0.29289143061659884,0.32325791674397875,0.3020631589948269,0.30886924252070175,0.3199242672773567,0.32678795840623354,0.36567039089603376,0.2905759147080809,0.2965933548560029,0.30994013276352417,0.30665066606244457,0.31641139338425744,0.2897771756200245,0.3104558613074438,0.3162242687626572,0.289235542025727,0.28713142235034217,0.32118430019008654,0.2986826526986869,0.305402282480023,0.29291028157125626,0.31664220065261073,0.3745612183324286,0.32135974269169704,0.3043354844155166,0.2987785897407183,0.3133934746548804,0.3180223874552039,0.3037976989818137,0.3093104267378658,0.296913713653462,0.29826176418368633,0.29002992996832766,0.30192995812593804,0.30532619579303566,0.3148244743925518,0.31462140192772925,0.2986134300077067,0.2963361986127522,0.3160214748057228,0.3056955165002352,0.32338808195223445,0.28792490850211416,0.3259879539135352,0.298841942068937,0.2964845566337057,0.30728458246384915,0.3169578385778312,0.29441270725686053,0.3011154116735931,0.3170261046628128,0.31549656841244667,0.3096496718776492,0.29854433567897204,0.2947852993733715,0.3030751139986796,0.29600206735817,0.29886964649470926,0.3502075220222861,0.3126826513191996,0.3448555819993815,0.30217840634547827,0.30183074350229633,0.30815428868033046,0.3091176212876144,0.3090951997020832,0.30316976796788137,0.2845293923099483,0.29129923094489063,0.3119699911095739,0.2905780262088479,0.31698544761699843,0.31877817561311195,0.3050216444367322,0.3018817647824558,0.316570586172192,0.3217671281554478,0.28993985661545335,0.3342538442367305,0.29394263867507703,0.31343313809439033,0.306025671618403,0.3046990934188737,0.29801298118266323,0.3111613052450841,0.29529955233612104,0.30626264860897956,0.3160388301720375,0.30219932669327493,0.29279317180701564,0.29666797826758606,0.30433279375320743,0.29103328894178576,0.3180063476768585,0.29643849512625103,0.30487022161348226,0.2984296539136331,0.3050239555977765,0.30637182452146516,0.32278811262497936,0.3119237022622692,0.2982776765582754,0.3026775011319284,0.2879803406492517,0.3050375595543229,0.346212458603257,0.3021547508997738,0.31631174903374104,0.30184426513480045,0.30717410260568423,0.2919488078722762,0.2995181043083042,0.3006674009971321,0.31680329461528045,0.2944901633236917,0.30241079555493505,0.3625227033781727,0.3102613796985775,0.2928038904063595,0.30093920864482715,0.3094231013367892,0.30829246245481434,0.29075970219153774,0.3178683252115492,0.2914787007182992,0.29478053249358044,0.30539797280332553,0.3370127336056451,0.29725795008051975,0.3052410548900559,0.32462311649884523,0.308590785995887,0.31323064011897317,0.31734150612834067,0.3168247934210596,0.29944369176678365,0.31639282395751744,0.33704140044311937,0.3108985952193736,0.2962837336133778,0.291553603705171,0.2973192365320932,0.2914685489727421,0.2999040931730437,0.3061281206057477,0.32428779433010335,0.3116411564443907,0.3013280647178299,0.29961519142205606,0.30079181927210574,0.30322285878585853,0.3057619013425024,0.34513442192441557,0.3180227202035354,0.2881722479622651,0.30421700939443197,0.30396804317261755,0.30164232149641024,0.3017987912177581,0.32051571456627215,0.2917705913675511,0.2924137866219617,0.32469182527422635,0.31552364880364936,0.2975409062292596,0.29816973868642926,0.31350128533426214,0.3189588004982832,0.30164360829501946,0.3370288554545178,0.35484656150884514,0.3172080541676104,0.31255117332731525,0.2887627689432568,0.31032258005127245,0.32831679624481724,0.30195791288954543,0.2895055168494689,0.3062371636380353,0.31422525256055733,0.2961791577951357,0.34440525496435137,0.30645564077278864,0.32703741679960013,0.3157504176433,0.32864460581164584,0.31102516509396805,0.32532057156234623,0.291758557929351,0.29113388802882423,0.3136028099858405,0.29314772174810577,0.318094375321112,0.3012133770953509,0.32692178668070465,0.3079576471602105,0.30904524457719346
1,0.2919996206022708,0.2865939707348795,0.321561114393473,0.3361987322723352,0.30339079183783724,0.3080000258773362,0.31873161194312793,0.32191215719716937,0.30758928279165626,0.3222548466594354,0.2976646461937663,0.2986338563387252,0.30885886498643816,0.3054408740340491,0.3040251327966217,0.2937299629705824,0.3060695276518887,0.31379741507924064,0.3270085237182999,0.29007920162729023,0.3171536837832552,0.37340252895229037,0.30583707950931904,0.33051788595720455,0.2963096357217832,0.29557014224372835,0.30077149028041517,0.31518313721162955,0.3022850659631682,0.3081965314296057,0.31973271493760835,0.3474375029798017,0.3086645444992378,0.2999098835832659,0.29415581254449186,0.3334084106107011,0.3050195759201406,0.2921673005901043,0.2909994697994982,0.300778165399405,0.3066306104696053,0.3315658556623874,0.30563753804650234,0.30306419147757824,0.2884291067293091,0.3031556023389422,0.3087100833421071,0.3026556710483629,0.3026182330904648,0.310535938231447,0.293701455577013,0.3273990329050177,0.31291239655836317,0.3066066587171655,0.3149782862717888,0.2873383162145026,0.34263998788950617,0.288718505722976,0.2979795197852412,0.310202396853103,0.3179451972994488,0.2881603695592404,0.3121552009410026,0.29418361166124557,0.29223565076440194,0.32009933008637076,0.32610503117394707,0.30519728163815263,0.3120640918770464,0.3131527602278349,0.30723416102432655,0.29161812424854594,0.2937130728543714,0.31143483897290414,0.30015727927461955,0.33267191960962744,0.2884884686671927,0.3170828034189431,0.28043821566401955,0.29852971664399464,0.2970280183147796,0.30780192634801623,0.31261529144467254,0.30419708358474695,0.3281964649509685,0.3006529673499224,0.31129530713004616,0.29888739844925694,0.31153916958465355,0.30246653911349336,0.30755391241952335,0.2889284025471244,0.29366821828040124,0.30682937914103603,0.30981962063980983,0.3148331751154479,0.33677580195681367,0.32204949754494716,0.3069320033096541,0.29943767853107073,0.3020449547076465,0.3023076436016656,0.31469786355849827,0.2942912496737019,0.3013115489310919,0.31665816515799516,0.29077519150384623,0.3141585918499007,0.29221233787093615,0.31005847631970923,0.30027833089255385,0.3195612488354272,0.3061280125107934,0.3158750637410518,0.3041132048602799,0.3079112180001021,0.3056282028653464,0.31066646351608507,0.3261444279851549,0.3260571500634787,0.31558448294346664,0.3188970482717238,0.31363312904383855,0.30762305226604725,0.2897853769293663,0.3083267277578812,0.2947423392618986,0.3051422261467855,0.2908783275756628,0.3099725006264545,0.3502547563469362,0.30445990679058327,0.3066123110831264,0.3033016524695467,0.3002272896423824,0.3106497472192212,0.31704163372275007,0.30425888522396305,0.34151296761816413,0.3075927381904983,0.2955840280796195,0.3132119624274826,0.329952632734989,0.2952317371465868,0.29623021175575576,0.30491769587101103,0.2987284539293354,0.32321790207842105,0.31544936468047646,0.28634496606174364,0.30778228294124277,0.3015825264050582,0.3119539350661468,0.3077624678073372,0.3222213427489844,0.3041737529338458,0.30800224785719255,0.33260489326792064,0.3226954769753664,0.298088812229521,0.303807872887134,0.3106020147180547,0.32206412040831894,0.33805718979372357,0.3052756505745699,0.31922405266244536,0.29899800999829856,0.30017413309153274,0.30594422064362575,0.3008394095111844,0.2930887353684929,0.3015035770748283,0.34316861510391716,0.29457436422279354,0.31493286086995786,0.29861945550037017,0.30744680030401794,0.31111833157600727,0.299784575341592,0.33725769054396537,0.30561665661742704,0.3144555694996767,0.3070338979277239,0.29820367587638086,0.3623392189782031,0.32462850379185065,0.29638475290020994,0.2975101533464382,0.2985956313784909,0.29080029183952927,0.2900921121629774,0.2949586960502949,0.30172323089728875,0.3250519569414198,0.2972211947348748,0.2963760910752983,0.3033771542530631,0.3274780981648923,0.3028448484418137,0.3066496707619603,0.34410182157524616,0.2934897659765294,0.30409108574178384,0.3084180028064402,0.3158908326548082,0.30835914005120524,0.3187163334456723,0.28820357969903443,0.30356752283808797,0.3097586472894815,0.303100809019021,0.3281417433888619,0.3015882753404556,0.306323904825698,0.31713391431333343,0.3124759260235786,0.3025559505928467,0.3063403001929642,0.30947292352233857,0.3225575854300676,0.31517575760599464,0.32221162300837314,0.30414815445275817,0.3400393590014526,0.3140403623733356,0.35412429212616886,0.29818698422391443,0.29499922373712156,0.2946582737988847,0.3021526880040252,0.2903405972245683,0.2971883268842671,0.3044962597872273,0.3040115694800488,0.29338281987037435,0.2935780084061762,0.3086040306982959,0.2932167802179489,0.2946850658515034,0.31162894892629367,0.3082589074776789,0.29534057868588826,0.3532454639314892,0.3140853112669758,0.28462359641703616,0.3116476994124041,0.29738624633842103,0.30130417066410226,0.31124723009115135,0.31393264570860974,0.30498062598686626,0.31227327561575574,0.33493823122301203,0.3174783735097068,0.3159004698848362,0.30906551934721876,0.3142849615191433,0.3684063475261587,0.32272841432425337,0.31360661426333836,0.320513555046122,0.3295160289971196,0.30935492193906555,0.2898516903488151,0.29402180826728513,0.3112402005538316,0.2959821764816303,0.29430224334765986,0.29794055007458675,0.2919310551047209,0.3307318953507686,0.3045852237894731,0.3170683850456721,0.30838274687237005,0.3065316098822673,0.32552046059372036,0.3014006557774279,0.2982985383822231,0.3214636468883625,0.3190484737173913,0.3106836807965815,0.2952235994362149,0.3501562642871944,0.3068230034810405,0.30880755433346224,0.29802632529975925,0.30759844405195225,0.2871520702315559,0.3451068709906847,0.3060958097044356,0.3236787246305786,0.3014678492921122,0.29514540750586016,0.2928470855849573,0.31619127520743706,0.3005371239020359,0.3314673020913723,0.29877191357432625,0.31114826265237416,0.33491030653365483,0.3247062535149653,0.308440109240937,0.2959774044542866,0.29907732361652145,0.3054655219917095,0.2977424268038341,0.3155082154046559,0.29694045275951275,0.3322283882285884,0.31270897747158266,0.2944780233075637,0.3343279530425619,0.33326578272647017,0.30349790190064896,0.3183866975945745,0.3078971556214258,0.3411688069616497,0.3164419711352631,0.30087703810224453,0.3056641183259713,0.29987651048099473,0.3130152949127848,0.3121581592030697,0.30599613379815144,0.3066247090690249,0.30111362857087437,0.3304293327993475,0.2988927737752165,0.33696555519744925,0.2971982131176307,0.3105284118574708,0.3255368685237575,0.30138754228359527,0.31372083428649933,0.31332753362786103,0.30346739856423194,0.31367065388436177,0.3138496201850237,0.3270449765958784,0.34755909760290804,0.333132119869814,0.34117183834528203,0.32179488985370275,0.2964150248634159,0.3079567429440575,0.2945099171698405,0.3179798766650283,0.30264789298937494,0.3126575334656272,0.3398853765933675,0.31708014419228214,0.3050753866371598,0.29677363551795694,0.3564258899576864,0.3134600495434053,0.314827256078161,0.29810093596304615,0.29973696529190974,0.3232917963551436,0.3013591617486889,0.3116104857253662,0.3111227888185524,0.3052721162200017,0.303743475340051,0.2978347927691522,0.3036622995380355,0.29950153228145193,0.31759190211376626,0.31738936107827576,0.3006124883497389,0.3151431428089174,0.3030889792905544,0.30277591823503885,0.3157889598989882,0.3135781956006043,0.3098797108029373,0.2934544838891749,0.3165375760760494,0.30072551430720684,0.299449661224345,0.31180012739550467,0.30827354174308497,0.3226283083324041,0.3018509525652842,0.3125232223559294,0.32778792175296206,0.28895367052842613,0.30761671413918634,0.31973095641204397,0.3036866316525234,0.3029232658617068,0.31943914212804475,0.32576912379335915,0.313622687684779,0.31582689007614123,0.3256909962866133,0.3414277226859934,0.2890717416521933,0.3196277735913728,0.3082921773558324,0.3132363732074817,0.2935710031980982,0.3008919698628082,0.35466305358342815,0.3109065241771469,0.3271259238809741,0.2977861949829068,0.3080110004985562,0.3201872079043522,0.30787681342219153,0.30476080930879523,0.3025875109344944,0.3140402121892985,0.2918962895515826,0.32106943230308305,0.31125948575913154,0.3282226385645849,0.29822784264515684,0.2891924580106299,0.32523729094469384,0.3268064686914698,0.31984139946820234,0.3093142304535969,0.3297993897709897,0.291342316959736,0.29896006403269537,0.32837952346631594,0.29814140783880466,0.30927390406770466,0.314325343393023,0.30921760386510144,0.28721111712499314,0.3000128265807744,0.3665779775835505,0.29841789003458263,0.2994358371605937,0.3000648361660557,0.29682849081397006,0.3066767714437904,0.3235879103977809,0.30326735847170294,0.41067906204455396,0.30207601850669363,0.30937169977521106,0.3054838346763919,0.3056712540959388,0.29395748151319984,0.32538959713687987,0.3623177773258092,0.2973136711784512,0.3052368492465501,0.3256180484332553,0.3049911713472572,0.29847393254117266,0.2882202982699317,0.31920577347069407,0.30738092830252634,0.2958839209852584,0.31600188445829536,0.34346437627214194,0.31906158427092113,0.30932992586647073,0.3266466338668613,0.30324138641767917,0.302594445053397,0.3237325644599606,0.3116641920982844,0.2980470696278568,0.3302457789722296,0.3098961006214814,0.2965480926898417,0.3163590036692381,0.3134248560259625,0.3120068192287759,0.30742223573794875,0.2971912408365066,0.3012126520989795,0.2926527883389336,0.3265313808683084,0.2992547165124807,0.29251317771049135,0.2999195704569827,0.32238258522590957,0.3033697883445473,0.29451466194850157,0.3060754175297472,0.30514693991043784,0.31768692270392135,0.32735047441611903,0.2919484089424908,0.3118560610655994,0.2993974411630098,0.3019754302948966,0.30481593187489275,0.290393766333679,0.30981754728605065,0.32719144915626674,0.2986662811940256,0.30750641236749615,0.2916378854933137
2,0.30267286637957685,0.29833464986177904,0.3198261830339411,0.31594278268531245,0.30613995234492714,0.331922055387092,0.2996978061310065,0.31166055383727603,0.297054415214328,0.31000520783428315,0.2875758108544113,0.30483625570450856,0.31701496185799805,0.3232983179559926,0.30989083671070994,0.29525308486098684,0.3071814120990603,0.3005534453134701,0.31061824037612473,0.30099986432881815,0.3170500727290875,0.31962368705341815,0.30808561381166333,0.3208222809548813,0.30222852059402555,0.28455376644475655,0.3005770654326748,0.298531510578068,0.3188270971390861,0.34202447156979954,0.32699364039790924,0.29928071881933593,0.30716001346132443,0.3024342136706101,0.2939564570241617,0.2902084498068867,0.30146202084090823,0.3182756624061812,0.30095766601092455,0.29637331384733356,0.30754437632137344,0.3369959972599833,0.31144850999905477,0.30799063993059106,0.2939589569429687,0.3258645903361304,0.3049402831557691,0.305117392253257,0.3002694904149047,0.3073462226611204,0.3092221130785696,0.3428010434381716,0.2945358517204352,0.29336222866597195,0.3067657332230798,0.31369499832064995,0.3170314907381479,0.29609222527799023,0.29188882963470125,0.2946282937868209,0.3139013598026589,0.28932941285407887,0.316327177098802,0.3321919236351908,0.2992266571953671,0.316107991976844,0.31193749626597744,0.29979570053294446,0.29100201950554866,0.3071619624174874,0.3374451163635537,0.3106511158740938,0.2998996324675784,0.30984812111868976,0.2934713841069577,0.29827752014245706,0.2931615883713841,0.3206050646367703,0.2846682746583333,0.2961859931954358,0.3122030941322093,0.31082918363656387,0.3185938505989202,0.2952680793381749,0.31268450877940696,0.2930662486721014,0.33474650066810197,0.3221995475692885,0.29366711531992973,0.3310902958088481,0.294799518631417,0.29483129403923547,0.29778915018596297,0.3159071739378582,0.3163102464621943,0.3502618899509943,0.32737512933713236,0.30326904662577275,0.30304903254277427,0.28780454748036,0.2875501631728431,0.32441824641331696,0.2891532058768523,0.3112815138914928,0.31907982176556593,0.29484118520183766,0.3037933675207305,0.3195395145698167,0.30704355284584295,0.29595100556932763,0.31088858464769,0.28997658619728767,0.3032575545331003,0.2979033683072997,0.3633697963107106,0.30941484981279677,0.2970968420290617,0.324548637249622,0.31984048353411076,0.29773426999109887,0.3227510472186227,0.3268915521460341,0.30360391681164134,0.3077398474549756,0.30348363596748074,0.3027837189094974,0.3028833738522671,0.32784824585531847,0.3198009670127089,0.3216321019474121,0.313032349931704,0.3248947987688751,0.2897382313298695,0.3060157110699579,0.2905906445578367,0.3187595143288851,0.3302370457622429,0.30501177519117045,0.31962197057188674,0.29845387725619144,0.3054748519329501,0.3013548239684935,0.30914184005714185,0.3094250046164239,0.3088591197475514,0.2999556463973284,0.3002698224893031,0.2927907004012363,0.3092607960275454,0.3217225333287937,0.30784551775884084,0.3161532223184104,0.3456916077356446,0.29611083941216965,0.3269386464337017,0.3188410015576684,0.3122360088954283,0.281155287493095,0.30989811830594693,0.2961493506981522,0.3069791598377788,0.3007244436315828,0.3055000290400643,0.3298426390351819,0.3372098578919766,0.32980125499738977,0.31504937000633026,0.3067805004154392,0.32359315263130295,0.2940120010678865,0.29860989653295283,0.3020519629070404,0.2977914551867185,0.2900613235821893,0.3051668156447703,0.2959179365383288,0.31529464712799554,0.2931588505435079,0.2980948292300607,0.3253945943020869,0.30459732457672384,0.302634248987131,0.30430159106516835,0.3077408189394239,0.33954584572818813,0.3229876330562732,0.3348506376353124,0.2949107263429629,0.3167027301216471,0.29646459351481436,0.29291726802625667,0.29184714143564905,0.3133928655424584,0.3095732130202985,0.31306873346236697,0.3355803879948235,0.30943069870009815,0.317024216384654,0.3194715577859874,0.30408794712864595,0.30651833852159943,0.3408364968212957,0.342165108462824,0.29330893280661835,0.2947188564742456,0.29182809359186973,0.3179247076872203,0.30030029907808975,0.30672688059882286,0.3032582386133843,0.32781949489925843,0.3028547412869836,0.3090606268352642,0.3032239386983605,0.305021696864993,0.30569960506448124,0.2964924112828053,0.31876998795933403,0.33107961629975186,0.3202104603939543,0.2991748987247134,0.3093410578257387,0.3107790510161888,0.29175415153324835,0.3101177500569899,0.30904000487169986,0.3024541622229345,0.30675119568124476,0.28429383560261035,0.2910698227743284,0.33073842852691465,0.3080537126776019,0.3097481925436307,0.2985525071204388,0.30656314367155557,0.2920984199977309,0.31310039431944137,0.3116440938824956,0.3141096802714035,0.28948341830092816,0.32631865558941253,0.29733657119132745,0.29861580611786676,0.3055612157406854,0.31374431714587675,0.3094269954967403,0.28974838484006926,0.3124151662952438,0.3175199889764241,0.32164987345275836,0.31701030353357657,0.31072546405673934,0.3218716763240652,0.31609247749800595,0.3113661284309154,0.3182621104543511,0.2963794179168563,0.31831290592051287,0.31504976517613426,0.30272766238540416,0.33653229078966024,0.3028421684476857,0.3025101592460846,0.31743812617935346,0.294261453060943,0.3071010693765982,0.2943051654052958,0.32820270954795083,0.3008765529124793,0.32012070575228424,0.3158380825390023,0.30462445457219406,0.3106461073361183,0.3268411719906038,0.3005147130843878,0.30086608557990135,0.3098851777006931,0.3022860138272968,0.2943031363539211,0.3176762540290408,0.31516224655671693,0.3157646394724588,0.32834147723798307,0.3037040313605985,0.2946352231952523,0.30218991119033456,0.31025933652699356,0.3223731960756617,0.31571160137401505,0.3208580487752141,0.3115107394745459,0.30927826798217106,0.2949699678749616,0.30805491516419303,0.2903244371982001,0.3056111753090566,0.28843653762288557,0.302816723890356,0.30575127220405685,0.31088500774032524,0.2982794381104944,0.3262268358725443,0.3135252173628006,0.29209831967366057,0.29460514802970905,0.30545219808413415,0.29963516845107974,0.31888406926463225,0.2962743063296783,0.2881978496385035,0.29447326545213137,0.3017436015228168,0.3224896994245746,0.3082060679437757,0.30800667235467133,0.3312562978419157,0.3115297700794998,0.3201709187378582,0.30525120664383965,0.2926933692900257,0.3056060704588835,0.29817147856871185,0.3038097277860203,0.3176442449528691,0.2958850071347551,0.3302793266954219,0.30415704726894643,0.30965655484586374,0.31564827287989594,0.30316939432243617,0.3255305573555708,0.31404274940955396,0.3045150189599418,0.3144925743092967,0.3269640033684099,0.3039992486871204,0.30586001756361747,0.2964320103858624,0.309909079826533,0.29033911420634223,0.3013578061087351,0.32360342395208563,0.3238914938008447,0.31842085593844405,0.29975959691071835,0.3085740618225358,0.3053115782978037,0.29156471747819357,0.3106843265136777,0.31444804934400394,0.30283790814480127,0.30388725598189764,0.30249856047617757,0.3144300689135237,0.2951653700670349,0.3082316141373326,0.33191722712852645,0.2988073543176984,0.3026441127524537,0.29696938354912267,0.29878595520961565,0.32518349737844593,0.3001139996916408,0.30027765334721057,0.30050093895418384,0.2896405643621428,0.30037262819905425,0.2954012253396789,0.3129110653217214,0.29557115624432434,0.294206417671648,0.31337861811628154,0.30016773568791427,0.31578894237058897,0.3014555119968055,0.30233374666911006,0.3196805462274811,0.30786586475153266,0.2996635747061718,0.3065756096732356,0.31740397224682254,0.3151445080273411,0.30178154766860865,0.31583087387747155,0.3111351816121693,0.31561959107199145,0.3143241782000263,0.3119134374260629,0.3069059721480378,0.3066084061631227,0.3093982511712998,0.29695600450073145,0.29728350650285107,0.30761855932732607,0.30066292563286756,0.32176242480848777,0.30532840293617663,0.28721631898581,0.3108703266989227,0.3300385486195739,0.30813939011930924,0.30247347906340594,0.30742811132430775,0.3031605383190219,0.3579018606786278,0.3225847517911006,0.2943502669596509,0.30407588026767907,0.3000918146429087,0.31522201092285806,0.313028148133728,0.32068260362247925,0.33305453771424925,0.2924079514489527,0.29649110869910184,0.29040496849975794,0.29430546405675884,0.29463714371423516,0.2895565500543012,0.3329764830719864,0.2966256195754498,0.3142516820697522,0.3083914988874901,0.3276690727127575,0.2963350303960991,0.2954371168203092,0.3041905628400971,0.30394651666513023,0.3044056261811214,0.2965385000871033,0.33347139638487566,0.2971347509393333,0.2944834018858032,0.29630340991794496,0.30240414092167517,0.29023073846810005,0.2968580911397404,0.30211162579779655,0.2999007160683533,0.3009098229289388,0.31163032962258763,0.29075947751622294,0.3118302868032083,0.3091103891356318,0.3034914343628634,0.3000480600004096,0.3217593368447472,0.3023086369524251,0.31678162043476354,0.28986259712784673,0.32071836128507214,0.2990675435642867,0.2979810785110948,0.3215525717737939,0.301707311299709,0.2939549024863908,0.3161120399731749,0.3162565812590209,0.28493238155291223,0.2960691977223003,0.3198639318044732,0.3210750914615174,0.36241413786274834,0.29064190664314987,0.31250095867807093,0.3190927977504756,0.2918319130483732,0.29890155421630843,0.3030021820610581,0.3035901330182897,0.3108768972352961,0.3236541631769426,0.3259462561924962,0.35208051820304936,0.3149543747874777,0.29720022071076146,0.3102766883845717,0.3002042626783382,0.306909153400896,0.29136118109082854,0.2956591594346879,0.3215663933962066,0.31801701842422536,0.29612101193824103,0.30362708726955645,0.3054251213455167,0.3055758618078023,0.29934261115898747,0.32569596706840437,0.2967434356070938,0.34647738738073286,0.30274349296242986,0.31925757716669706,0.34780064409740674,0.29412809377885296,0.34851112667740836,0.3232855710987398,0.3021649715598804,0.2994892099431896,0.30534308936747817
3,0.298896229248478,0.2904612646403392,0.306973021115382,0.31107417946445515,0.30733234603808574,0.3221273997256368,0.3266803393541182,0.31372153210861053,0.29177508327661955,0.2965326931742386,0.2984649197286805,0.30514326921975504,0.302117766044809,0.32078621015300934,0.3043237279998713,0.2930435629202205,0.32213416543008966,0.328885819947263,0.31443327552582845,0.2929678802452156,0.30634734724517954,0.31995531552537837,0.3247056034510455,0.3099867344345943,0.2987391011238401,0.3124985006530861,0.2991826247958511,0.30387182381792294,0.30854961627814553,0.3016776037131866,0.31863713690930784,0.2877621557514232,0.29849223732309066,0.301013748604128,0.31103412055191615,0.30094251546691625,0.337534613652144,0.3199554013050222,0.3072634034822279,0.3068393215857211,0.2964439324853532,0.3330441158165483,0.3130820389399231,0.3144415479056498,0.2901147261494409,0.30190634535417116,0.29821997997832284,0.33630937078576445,0.3387857209779853,0.31877154497619226,0.31373549703493997,0.3009436332498755,0.29700290944927304,0.3008843442361583,0.29118581484739364,0.318192714277023,0.3109290014640938,0.2944919204785405,0.307968014201805,0.2970171704264315,0.2900338569774209,0.3177315975022622,0.3165269459562129,0.3129777229421464,0.31818119516567256,0.2960308196184903,0.3301912850319882,0.32913549252085766,0.2985015503474473,0.29368043497308316,0.30277850792832073,0.3034596090754622,0.2837900378794838,0.30970621977162804,0.29435704153582054,0.30245774898554884,0.3173970794348834,0.32512372402920614,0.30361296412011934,0.2972687316465686,0.29906198124942357,0.29947449918521907,0.30656379912399406,0.28610447556566954,0.32460064451178916,0.333515083571562,0.30042893633496187,0.29999314598534704,0.2970554500899715,0.30235060065162334,0.291931159713532,0.2920112052172095,0.2919647154508872,0.3179742754642738,0.31667451223751464,0.3172327221089247,0.36485960391523947,0.32844302745043974,0.31952779090701217,0.28783378195363196,0.32046019997136665,0.29878805469654435,0.29668718277382644,0.3181960819844859,0.3033392638620881,0.2918040732313195,0.3056679888478957,0.3072489576581916,0.3111560814870523,0.2951644189095076,0.3303477762185426,0.31038361476883847,0.2967643042656044,0.31529841743056325,0.32643897336592886,0.30191720404624717,0.3363415607385643,0.30515860044395293,0.3107657636971837,0.3482874164218683,0.2958301405008704,0.33698260042975714,0.2975792374018904,0.3163136811627156,0.30891323626637635,0.3185983641910477,0.296080939024143,0.3026651470728668,0.35231191396522094,0.30343515096967716,0.3219963117360179,0.3076614613415539,0.30232448208305,0.3096184262593537,0.30323567213739927,0.31446293399726494,0.31705805195850256,0.3200638899460353,0.31504161349975873,0.2983695655923364,0.29488924433214364,0.30851500971659995,0.3068260970667486,0.29383060199435523,0.3242113883805455,0.2964329832493157,0.293840030692286,0.31405247097010375,0.2903448006764198,0.3013162582690085,0.3248565038378096,0.315389303558263,0.31001614278767586,0.2993338813050826,0.30756596186332125,0.31198194333254364,0.32799062875128765,0.290443860649176,0.29180340966124063,0.30338409566546254,0.2934503611520968,0.3103135646880669,0.3005835330047126,0.29205573349789055,0.3092120470613612,0.30464825634742027,0.2967448258880611,0.29680588795091734,0.3039610104695468,0.29457407194177654,0.29856326121802923,0.31170621699437306,0.2958222754360208,0.31449532900851535,0.30661997657610907,0.2973376214906637,0.32003994080402093,0.3099874354881416,0.29581537434588495,0.29808288338711064,0.3080824624034765,0.34717539827202715,0.3276431501968299,0.3062112565553444,0.33544528904762183,0.2934482152521223,0.32586289476376057,0.30138445166657596,0.3252214796554417,0.30986070829136025,0.30490908235104486,0.2932342082300259,0.30169445362091124,0.29486874428486143,0.30342328586521605,0.31702475181782636,0.3189274107585906,0.3026768646018837,0.3120655595091683,0.30722954426759747,0.3286306194037669,0.2934857288635262,0.31235201474380797,0.29037835670494616,0.31506398019264503,0.3190576633508301,0.3423262983666312,0.30063410298466114,0.3064115727544888,0.3217830854740172,0.2979922836392472,0.29813077283842804,0.30606421543479867,0.33126217211132913,0.3216543805503166,0.3100616301323135,0.304533122599544,0.29514606457966724,0.3346498072490015,0.3232280498578163,0.3055166432969921,0.2943409556066473,0.3196024600121338,0.29622949318368513,0.317569439772068,0.3167538945584031,0.31510881083494036,0.30124469288877914,0.29519321760305983,0.2998400957080939,0.33666180146837676,0.2981952443217478,0.3099108302012612,0.3121577177143656,0.29740433531738597,0.3102184339580204,0.3174342430068538,0.2916816278748252,0.30657809817405607,0.3321729877143501,0.3087691339715152,0.3065966795827752,0.3023040368189458,0.3058954050166426,0.3265869593354625,0.30737346982113223,0.30647515624741195,0.32244333269893716,0.3115381833318812,0.30878216054635843,0.31331660157092434,0.3257269756534992,0.30678013722260966,0.3007302781635207,0.3132382359778693,0.3236835623430518,0.30111360760382955,0.35869810416986814,0.3231070017420826,0.31354357893573104,0.3175605437800231,0.3185691011229602,0.34082188136794606,0.3097116426696804,0.31212958378324285,0.30771437581036637,0.29722028603474693,0.3287128314748287,0.30314352222557484,0.3337920348218694,0.3043547813250652,0.3766884786720892,0.31307825083073026,0.3098503587331666,0.30482367759701373,0.29851352732044517,0.3150300728902073,0.30587130022658204,0.3044894515041998,0.32075050442818176,0.31847493326624904,0.29331543156880124,0.33517721680668633,0.3121976852319758,0.3009323302950541,0.2985052898207487,0.31076914677121376,0.30459712348318274,0.3039037115993827,0.3073439309176745,0.31251151104265495,0.30841805636228786,0.3082137413225191,0.31660262671890155,0.3197842839844717,0.2959818380576915,0.317181821067939,0.30584282641826116,0.3230437978781978,0.3373858982397441,0.33437628353859455,0.32212794063823186,0.33670304880031177,0.301877832734601,0.3263573210931595,0.3179542026856515,0.32924550486387594,0.30783572148221905,0.306538797068568,0.2915064570150852,0.3070706006993621,0.29719887246811366,0.3230793137068109,0.32580723632773967,0.30425070420072986,0.28471655810763086,0.32029737032629596,0.31361392077201644,0.296259492619406,0.2974485707134745,0.2991331215253623,0.2912731431132861,0.2934555013434308,0.3279240949160725,0.29536666595518846,0.3910361390444456,0.3167773489864344,0.3096469929589143,0.31132033409006715,0.29296873724241984,0.31342780135309356,0.3084720904306359,0.29462084872561495,0.3069186784464414,0.33415064433865593,0.2875864377505697,0.3058145260698425,0.3161678156600532,0.3112060737066076,0.3255894283465197,0.31536004436524306,0.3288525496985912,0.33207167829899015,0.32959776462735546,0.34106526173218,0.317999776174888,0.3231160217978094,0.30490752204473714,0.30155026484172703,0.29581518233348086,0.3052552511673942,0.28653955345340226,0.3198483282422778,0.31289168353893004,0.31609500893364684,0.3097106497137074,0.2988454712156418,0.2986134843368608,0.2879226799053994,0.32211243640353576,0.2942484199565166,0.30895115040753746,0.3135936776411997,0.31251092863899754,0.3111918950008349,0.32109110220278647,0.29960851351302753,0.30990974532321414,0.34674334085817066,0.2995671204189371,0.32684603093034637,0.2900565539529471,0.3006654494017752,0.3225532953156572,0.32217067251821274,0.30132620820568345,0.3034571078717358,0.3081653289832604,0.30064690384244386,0.2941645385350554,0.29807157027818987,0.33958511497984023,0.3213554465284031,0.2987203530050161,0.33054751969242246,0.32611884685256715,0.3367707409176742,0.2950591360108897,0.3022849094931912,0.2972778371263097,0.3206585739162693,0.30221505781999175,0.31309543449757465,0.32918292615848077,0.2911236865158573,0.31243624959216254,0.3123277724529817,0.297717863033493,0.3065918490940281,0.33667975868785105,0.3051092269101795,0.2981430651007742,0.29453933626767004,0.2919472180621462,0.345096358333142,0.31913028179455194,0.28745752932769497,0.2953843573635901,0.3121015383911018,0.29910634333320474,0.3030663076607102,0.28831720474687994,0.32763210401251,0.2986528932827877,0.312282182655209,0.3188496004910951,0.3360218656502287,0.28750093168739405,0.2959416381770806,0.31650109781652724,0.3081095381753812,0.32032554564218596,0.3173578181936228,0.3216868233971252,0.2972899911985278,0.33271029978351147,0.3098115100032285,0.319506592067005,0.3086571957991192,0.30578398894383263,0.3565228565296317,0.2966018655385013,0.2991651263561825,0.30973301105865503,0.3062898313266428,0.30853002278475916,0.28937237757873296,0.3013348188133158,0.3136283002494875,0.2995043404828624,0.31704876312135144,0.30723966931147256,0.30669907150083486,0.3155851228209758,0.3067285792093209,0.2999238887156269,0.3143098612197266,0.30560849710799826,0.33618012643110967,0.31978508887678836,0.32199933290687743,0.30935375958061584,0.3095942236689403,0.3050185034755876,0.29185760650703735,0.29410668820976915,0.3095936812938255,0.2925731252572495,0.2947192622892599,0.3073543667490049,0.3163402844630609,0.30880067011068446,0.30381306709863387,0.29437424022906944,0.3066464830346767,0.3258117520133776,0.3074594236317124,0.28496861356488423,0.3116386165937669,0.3182515825232787,0.30979568450557987,0.3138043070389914,0.31200413469027005,0.294490593631653,0.3070151337898427,0.2924881222369716,0.30869361333238116,0.3080374176375466,0.33929369375402885,0.29212099052538104,0.29608353368763807,0.31194900615296894,0.29246811406316964,0.303672332165695,0.3209711420747971,0.31914301690995056,0.30909667781702865,0.2947771432040031,0.333496318818488,0.2885238001330226,0.32711905682321946,0.2952324203064464,0.32463989522464376,0.3074951075256081,0.290855892139113,0.35385849262692426,0.3578893932505996,0.2931645485477217,0.3125523078550163,0.3011761961394403
4,0.3049599299736615,0.2863002632833863,0.3326151707195003,0.31187211814884874,0.29994123899563874,0.30244633625550466,0.3071765830970262,0.31817960528531997,0.29428458761420556,0.3048296191348833,0.2963821841716138,0.3048845604129973,0.31000399997747236,0.31263163589316156,0.32428065866675304,0.29764520765347285,0.33557632530134196,0.3364831136890242,0.3117045313384291,0.30199166843828007,0.2933418683809359,0.32275388739382377,0.30428942223684574,0.30320429771129165,0.3019833036631824,0.31721259383328,0.2959554559721823,0.30098056275271795,0.2931946843296372,0.3366726136767788,0.3306401692881077,0.3098747734098232,0.33463007151472757,0.3177693674596603,0.2978622417210133,0.31661361270234345,0.31789569162115405,0.2972723779194412,0.316884990559421,0.30623187566358795,0.3018123611807111,0.3177470676611778,0.30142246937518224,0.3111794167092898,0.29102520083543226,0.29046039580289024,0.30176628014216583,0.29962670222691673,0.30540323254388146,0.3193241217790272,0.32804080733164787,0.3033420342450889,0.3132920570727587,0.29356458765399035,0.29785469613258975,0.30161871960024034,0.3176566357908214,0.29455998820889384,0.31641298780799454,0.2885606476424552,0.3009056145428819,0.3047913960356722,0.2916367391527283,0.3135810407878936,0.2931353606190827,0.3088610784215649,0.3089156867067958,0.29891716021772063,0.2925844215542333,0.3211855895876433,0.2967160499512707,0.29302205293695127,0.29389704857525,0.2900599370494549,0.31345163314529073,0.31097728044754086,0.30316226972431,0.30813456569880604,0.2858748804619231,0.2965131531105602,0.29494259450565685,0.3030025124462541,0.30785041181876394,0.3051066049394425,0.2927116497406128,0.3224187868538147,0.30554095731294295,0.3065892644565636,0.29859156944404797,0.3243111947127987,0.29223753301465927,0.28951646698460964,0.3006508487540008,0.31231502946137324,0.3263974478857177,0.3173131086813427,0.355547378740991,0.30365169474987264,0.32029109951592694,0.2951776119346724,0.3033255814373451,0.30120635378542066,0.29629068067849385,0.31502472855043306,0.2999432810238485,0.32069688905771854,0.30915099038299737,0.3484782790688709,0.3054694260281593,0.29536001247148047,0.31339598920590117,0.3265519467649421,0.3032985159231503,0.2897697857270197,0.30411966624034703,0.310061407108118,0.30591656330244876,0.3105327130776271,0.3150853083312678,0.3042404635768342,0.3068604959265415,0.29707086381812253,0.31710710600949293,0.2943753898060049,0.30046764809467985,0.2936157552677745,0.3106992840797046,0.3273318319180025,0.3064463960850125,0.3036863556504081,0.39709516471999107,0.29592916793544444,0.30452371312043786,0.29275175456514224,0.31545358170386445,0.3014406765928226,0.3447710645291447,0.3046100115936878,0.3027193622984671,0.29842380390885825,0.298912815822513,0.31818548030944516,0.3085164727532203,0.29943378900606776,0.3150400875623568,0.3026952656854244,0.3039108723910909,0.300044799997948,0.3141901203441839,0.3258534501583122,0.30279370094300395,0.3071296540429173,0.30005932963983145,0.3092467197145413,0.322570382351932,0.31062036594805054,0.30081245496686415,0.2962970976917569,0.298130254182347,0.3035465823939799,0.305152198538169,0.310683858503599,0.31440847499898295,0.2938449002219759,0.30159351084828356,0.30414083988788954,0.30159773022218184,0.3002493107754336,0.32006216958000805,0.3106492536504191,0.314290400958796,0.28701046279577824,0.31185750318664374,0.3376188121369991,0.3116984911703108,0.31002213493842923,0.32824420218154066,0.297162972279157,0.30302734665436704,0.2962567626315557,0.3638272618059004,0.3128374316739805,0.31000102645657934,0.31090247184947517,0.326254457207309,0.3064060129213724,0.3054827757076048,0.2992678742458454,0.3317173303791098,0.29662620978034065,0.3094305018619122,0.28903633431801556,0.2988083827193799,0.33885430253588605,0.3090776876625242,0.3109666510209389,0.29978466413852833,0.29920540742681284,0.3168903854694157,0.29357459911971345,0.3173339492749182,0.3138942855004253,0.28985387446386146,0.3426814043832406,0.32218830134323617,0.30756647710704704,0.3217704639361589,0.29640851982849276,0.312688125918147,0.3047226566647016,0.31430463362602323,0.3052041126176801,0.2903752582298025,0.3041583028053859,0.29949331426386927,0.28643730386321814,0.3072946639479651,0.2988984402057263,0.29962391842141906,0.2925160779460395,0.3304588530895907,0.2929999445874731,0.30214961379313515,0.2968135711811791,0.30884125231352366,0.30507147918881794,0.29461803258571895,0.3040204010811841,0.29926999627282547,0.31113203503415165,0.3172929217583888,0.2889660137048176,0.3047302795056611,0.3052341678115971,0.2936752352524824,0.2989831903522564,0.3163924667025917,0.3139881579595563,0.2978494700884814,0.31207577529042607,0.3060691266871601,0.3038717114104728,0.3204010171591084,0.300859595642765,0.3250187756289856,0.3172430592645813,0.29786494289920656,0.310694658745552,0.2999323368262653,0.3140916440576664,0.30914670229732577,0.32165203341592136,0.30408465374079346,0.32651598528805587,0.30568683569126065,0.31215987029095776,0.29526605174330106,0.3201184700779896,0.3357034174982837,0.3372418305124512,0.32260917871879635,0.2998722303352536,0.3017745131186561,0.3150804778734188,0.29216839623542945,0.29356640000037026,0.30713518419961555,0.3375602396569156,0.32138016411398285,0.30434043625966084,0.31090570584162414,0.31251836156659313,0.3191447303327704,0.3144274751084505,0.30031117506420574,0.31148227501928827,0.29639165330876127,0.30986945485594325,0.3086839141239958,0.3344174525292016,0.3049987223265743,0.3115691462200224,0.3165783391343152,0.3153947052845935,0.2964640641681753,0.29559796958116047,0.29509453491548143,0.3058207973208413,0.316910074823426,0.2890334882401659,0.32246420141345833,0.36604090282927065,0.30592780912752315,0.3216134548255352,0.30052034722510723,0.3187115355356643,0.3034214617481992,0.29887733040384823,0.36886296265065877,0.3301086540804449,0.32779210121884,0.30804286570995804,0.30989086906999164,0.29272694707167946,0.3027213423928645,0.3110442083544632,0.3001072419299967,0.3008257652341357,0.308798135881535,0.3176374250750478,0.30235564838665585,0.2998405778467469,0.32785778810392885,0.3118578778377688,0.30177869599948265,0.2883311277569888,0.3050390038474097,0.34677011642622024,0.3019495530396687,0.2962004760719207,0.3178031764524335,0.3122970737689548,0.3184220694586104,0.3048628844068507,0.3091740749799145,0.33339679383969884,0.3064919837549818,0.3192285633595723,0.302038521901861,0.29057950077214306,0.33134471954075456,0.2964064232014401,0.30441120969871316,0.2932207848997404,0.3218533887629579,0.3093002945626664,0.30835523755364147,0.3101606881630151,0.31281745686885104,0.3262336175286355,0.3198921188570633,0.2948123271670224,0.31152868038538206,0.3213535161222617,0.3015773842768869,0.31959216364749854,0.3070579879377518,0.30971355013188573,0.31245315878681784,0.3181262922594585,0.3078352752795406,0.2827901881827603,0.2994901837667789,0.320210270806263,0.31726103474415074,0.32146994744102864,0.309295251678054,0.29490087433369877,0.3142298290840529,0.2993848310195234,0.30494938276404915,0.31563135730723213,0.2940102632038696,0.3218932661686745,0.30521155319123605,0.3050825316938879,0.2902533847221916,0.28693089483261147,0.3255270052813552,0.29698243744366726,0.32357842809815357,0.29551512328878843,0.28927438763453744,0.32137171376255624,0.32485046583754185,0.2933564310266413,0.2997398942890478,0.2961028242742331,0.31263380673857344,0.30019459998124887,0.31101547620128034,0.3417292501712085,0.30240682880245356,0.3009409670025002,0.30082744678168305,0.29763291312832757,0.30658104651566453,0.30886233612917063,0.31690509964259694,0.31180853205547887,0.3125565705060091,0.296820799117277,0.31543182244223805,0.30793609614732426,0.3177749439550847,0.2928841687882981,0.32718466811750224,0.3124466787167666,0.308253365132019,0.3245769195031259,0.30464791389957485,0.29650468937493746,0.3014676524771854,0.28851323607778623,0.3183624447863651,0.3257905255350123,0.28718629499057907,0.3228427356994461,0.3250983968054245,0.2926529622556586,0.3133757172021499,0.3023668088372379,0.29975584317519727,0.2922322227599291,0.30448950105751665,0.2975739830021736,0.3148700189788193,0.29201335517499183,0.32775105475727634,0.29992680541609956,0.29156611290066864,0.3004320438831265,0.29850031808200367,0.3077930486011756,0.3069915120985913,0.29953990738544,0.30689119539368404,0.30949852504859376,0.29076556032436207,0.3107766297324567,0.33362321796700045,0.293348982022754,0.3183015685177787,0.32476691593500095,0.3253137636128587,0.30326883974478913,0.3228247152124364,0.2908537298576611,0.2882131639496847,0.3033885812608329,0.32800591077754593,0.3262293413381387,0.3104996546831774,0.31158857499040193,0.2916865720984341,0.30001997437549727,0.3284645670585654,0.3072210080485798,0.3230471021038346,0.2995539931841026,0.307743631339548,0.2958498383982586,0.29907569944583645,0.29282472948349997,0.2964852221354066,0.3022852764728812,0.3103891757807326,0.30167580071704575,0.2956251215167194,0.2948335837241579,0.3274212039233945,0.3041871190904112,0.32281300478580854,0.2893573785627955,0.3000762727660077,0.32588309097308843,0.29009767575368095,0.2979514213162343,0.3086866513536399,0.3090392749494081,0.31131440080575273,0.30405076787236535,0.32706238017670497,0.30205283153096435,0.3111232817921247,0.32430513512912007,0.31698337246803276,0.31460905575105624,0.3203391571444841,0.29648116387172524,0.29543022591698404,0.2995729398698973,0.30546355387889396,0.32319325790587267,0.29168280038699224,0.29489095245928354,0.305572980968772,0.29327536195143766,0.3305886912177443,0.30066039801701117,0.3204873957608126,0.2969028256986528,0.3091516108375189,0.29013313342145525,0.30948555526645455,0.35092528983749266,0.31031411798694813,0.2989369511733463,0.34020322640896056,0.2939180366926644
5,0.30050879972380223,0.29907594472509036,0.33814730785061897,0.32148800103170555,0.2991530634348558,0.28928145205736955,0.2944774241576385,0.31614918874143705,0.30868466732869543,0.30504003174777344,0.29501679319095986,0.29664927202042896,0.3238907299171553,0.31213747891759047,0.2949289061126199,0.30402749566216575,0.3229359212228467,0.299018762767164,0.30870148153385246,0.3037845005862315,0.29007487753680733,0.36820635995665313,0.30370866321003726,0.313861894854912,0.30599800783823083,0.30674164757216993,0.30340675333313116,0.3008609072720332,0.30950321858265795,0.31842369344828214,0.3357414031505037,0.29729256449387903,0.29817548809103894,0.303684607626947,0.28902099834068734,0.30060114703341934,0.32487010368651126,0.29699296463550906,0.3187584728642066,0.31820472340882744,0.2937662821634199,0.33866291210058874,0.3083710675865465,0.2931234048779544,0.29332752660273764,0.3157446823478302,0.2942823575503336,0.3033081732183863,0.3207367306605814,0.2991295409580216,0.30327387651294613,0.3140382315770737,0.3026248796358676,0.29142939674508755,0.29234178832725377,0.2904087667391754,0.31643094999736954,0.30405937840760466,0.30154337310520385,0.3140356347896659,0.29747407060174985,0.29734434370175805,0.2938872245084939,0.29913931331771637,0.28682237090262325,0.2924854107070196,0.3256840712817551,0.2979931649529199,0.3043712028547326,0.3099589180363885,0.3069611661552958,0.29556473535496536,0.3043002350810417,0.2937618370550596,0.2977307181034689,0.3075179762066586,0.3001087406534445,0.3033500162647114,0.3255007873261911,0.3001773185853735,0.3128598266344576,0.3019404621324367,0.2993184216509718,0.29838064959356514,0.3046589863364347,0.3341690063192011,0.3207503283186512,0.32801865755050075,0.29960171611638053,0.30848734155439406,0.3109852133829866,0.2937447435050671,0.3204447780410292,0.3230559555937841,0.3392440196350385,0.33276686123486837,0.32226526376699993,0.30065198820760075,0.2980074024007564,0.2939280709923456,0.30228800391638383,0.30821643021707124,0.30308239969807393,0.3017626137926968,0.3002599718775284,0.29682838661253014,0.296141303108007,0.31642066838126837,0.29936961476310575,0.30024247005471366,0.33042612398806526,0.302604974639234,0.29196715529680367,0.2890987558062223,0.3259904144525412,0.3201809269280304,0.3129419207819305,0.3176931886729835,0.30354847036867516,0.3082292603806563,0.2934099571854178,0.32167426025793217,0.296244521441045,0.3149479217916485,0.30577900959605503,0.30434824433827473,0.299282190067287,0.37491840765094553,0.3144275973788723,0.29904479449118715,0.3452125884126923,0.3214420952331965,0.30430266288623115,0.29928777137166424,0.3011077486353539,0.34444538728971075,0.3244704738079971,0.2963487990388155,0.307786157544326,0.30784000693009617,0.3253153222490862,0.29575471729533426,0.29404859622142177,0.29454823495339405,0.3028377267353655,0.29552563127980297,0.30269551463727834,0.30829741821348317,0.35046045118745284,0.31092530377354133,0.30509856756753884,0.31024967888754423,0.30632837437279337,0.30062396105338146,0.3224563533516248,0.3265630277178804,0.3024869019749644,0.2897937164128458,0.32089105657847006,0.2978413997312229,0.3017551716824448,0.2911046328669854,0.30438624712343965,0.2895433612241199,0.31556505377953886,0.3081199966238838,0.30090323238105,0.3175247744754782,0.30712146917134636,0.29298510558505886,0.2946527116890205,0.3015939520961296,0.32006028233410044,0.302135549458732,0.320796593862427,0.29996085539864276,0.32729866568479926,0.29939901843666794,0.3030289872946466,0.3072875737994575,0.3448490682456441,0.31203397146767725,0.3224242961574796,0.3118251971637266,0.3090778783587721,0.29898839475790845,0.29206819052726785,0.30581129054571904,0.32317981706227006,0.33076173849174073,0.3044293337443479,0.2920752366419345,0.3021280528224417,0.31149508691607497,0.29228108515054363,0.30682905459894666,0.30280685477258845,0.31230853960828864,0.31992594268899216,0.3068234969566611,0.35159351842996733,0.3209213149794441,0.31723509449938847,0.30403328142616926,0.31594075144813105,0.30427407445026555,0.3213140092873251,0.31188546660096905,0.2866693144835467,0.2994909329755616,0.35289115419737804,0.31000480255322643,0.2898090435771993,0.31255348767735797,0.3191398031799046,0.30630897822680286,0.3025508230276423,0.2950348035992718,0.30493950805836423,0.2994276911213349,0.30548406001649464,0.3015738163358675,0.32385730298552284,0.30891036153705115,0.314152699188721,0.30976629867886685,0.29213422367867187,0.31039635664654835,0.2996736753201642,0.3032457227663366,0.30162269845190715,0.3035692649782952,0.29640875986627185,0.2980107553765457,0.32199797810169495,0.31074903386998637,0.32618207535049115,0.29319033775178693,0.3000229832347156,0.33096610423145983,0.29814676240291005,0.30798639323222565,0.3030796416909237,0.32322340438806657,0.3285160449011234,0.3129040749972485,0.2915488838181156,0.30765551597699253,0.30839641853762834,0.32865849593675034,0.30067851608072604,0.3426303274072297,0.31673937411899644,0.3002992821248736,0.2958797456280081,0.32184198621647203,0.2939241528332558,0.32070461149453006,0.3081062034634288,0.3001737876589289,0.31513552856868027,0.3185410590575709,0.31307462178823764,0.3216839122721077,0.30217741404921455,0.31123963059404197,0.3158900869341006,0.31128090035986855,0.3059256911251539,0.3129035730776586,0.34016805226365193,0.29699133596906874,0.31351880333146454,0.2996703537348979,0.3046278972196973,0.28605736623994765,0.31369198557543687,0.316306817970779,0.3001363197952695,0.3006871283446218,0.315915237381848,0.32564312830144704,0.33132407901920247,0.3083051128542323,0.3045510628585144,0.29017005288408065,0.3025993365448222,0.3006630353498235,0.3219647588363476,0.3159605284376177,0.34162452086472767,0.33319279173398486,0.31970490487867864,0.3068627915542897,0.3129199435400312,0.2936142186787079,0.3001610717706921,0.29542706668556334,0.32149571269952204,0.33668010393263126,0.3050657888752043,0.3028759995749144,0.30784226347299465,0.29821997478724416,0.31914910220822923,0.2939907949469441,0.3068517113292555,0.31288476779659125,0.32107264362982096,0.2969722532649647,0.3068308176328513,0.2947008264319939,0.3553866612274346,0.3146749455429374,0.31621493702152376,0.2848502561629144,0.3169467899657957,0.3071990588436818,0.30190290409576337,0.28982914720343933,0.3067722094128065,0.32662154297191437,0.3145756947343691,0.3040607914576533,0.3006087504103473,0.3481380729142243,0.31088394254442864,0.3007906054589463,0.3004409127048696,0.2873831187835284,0.3070742486563363,0.29413567891455317,0.32048597365705006,0.31616555093611476,0.31904043504657953,0.3116669161979667,0.31886424900925797,0.3088888035947192,0.31579441609766085,0.3098436622851094,0.31469416604366646,0.3015288980355026,0.3109686904593495,0.32159415355202325,0.3202885595995234,0.31985956590976256,0.3031570942630225,0.3005682541280686,0.32762310278915674,0.2950324108941192,0.30898919677524883,0.2950568685095657,0.34537990889868647,0.297157706000725,0.30575981442217814,0.3291842223565614,0.29675201868831513,0.29111562440134175,0.30991236126265226,0.317819516507999,0.31853113028391017,0.3320382242600898,0.28988411990592644,0.28958367126293844,0.3159880362990899,0.31344542517652574,0.2923595085154288,0.30036485392364953,0.340031249352443,0.29326244747675173,0.3314006163490241,0.31156109358675776,0.2964171754159656,0.3075346110103814,0.32632963957759353,0.30292108321795264,0.3171633925567052,0.32547849057891265,0.3231610691001166,0.30074873756537784,0.30614076718801125,0.31946316738902786,0.3131594267362272,0.2964295872606198,0.3171103299144339,0.31720309666007224,0.3091529219697614,0.30496914244491863,0.299895373291171,0.295299683339895,0.28701196348136915,0.31393121387664646,0.3339592874981242,0.33954252749173597,0.29716831706800295,0.34071179641905835,0.30583744344331043,0.3068662547051678,0.3135596057063529,0.33351249049590753,0.3099855688882178,0.295721697912098,0.3022973079625698,0.30511876132436005,0.3202192453349464,0.3068969489686892,0.2935770736722744,0.29954997860695975,0.3167854199057537,0.30308306390189227,0.32024331306121956,0.30708406967736857,0.3249684694061526,0.30150638418275777,0.3241581897842301,0.3182439233708395,0.3014204446561127,0.30564164184349907,0.3031832470159728,0.31698737498472807,0.2957625129518498,0.32727238966310884,0.29620467123094485,0.3016362724537597,0.2957690949176248,0.2975960746672251,0.3118209196691458,0.28473040868035104,0.300222939931141,0.31355356703850296,0.3042825601187724,0.29781390783281225,0.31157606468362153,0.3569764911193683,0.31975421104412416,0.2909660458231097,0.30370479023406355,0.3045747894545089,0.28527750359689136,0.3091693996601883,0.34702071015690217,0.3992959633668378,0.32400077883692946,0.3266403986657932,0.3044661969934741,0.2928039664177825,0.3011589784080412,0.2960142295838979,0.32038978825063963,0.30081368465152286,0.30622574009537434,0.31483570653995613,0.2978825722007212,0.3009354352523484,0.30772404383088625,0.296862121789889,0.3104999029904374,0.29855758897341034,0.2986362216736179,0.2941695924055364,0.30438941167191963,0.3077485026809885,0.3149144021327758,0.2959942341218243,0.2973687352725735,0.3044786318780187,0.30996783146166446,0.28630580972305253,0.31942631800326715,0.3118016690490976,0.3160811706199804,0.35402009451274236,0.3017426892871749,0.32468803136622376,0.310310071175303,0.30591634550791336,0.30315807529513783,0.34230833660179105,0.3156452422276409,0.30582854542473015,0.2953046682448681,0.29974392819194023,0.2921932272834132,0.28842693603247593,0.3018956197874768,0.36323128491336265,0.3199482792583198,0.30408010933546936,0.3204569314213978,0.2951096050027056,0.317951702198266,0.30729059898817446,0.333967072498426,0.31058191582366623,0.2928733845658273,0.3205573465269875,0.3296060441771259,0.29597160047891374,0.31207300858769277,0.2938272200905689
6,0.29052799534856294,0.2945302030165141,0.319508410780547,0.35334889075326015,0.3081319374782928,0.31363982235262183,0.29302231137630386,0.2982903503935623,0.2856102517035289,0.29830344419208193,0.30063194720246844,0.30965934105434506,0.3131338503819493,0.3142608753781789,0.3126562916129254,0.31841687615578546,0.3179556410911951,0.3070244672322252,0.3021966443119496,0.2941859764642397,0.2933675419573486,0.3174693141441227,0.30788035030724537,0.30271886336661247,0.32160794151722827,0.3298660329584144,0.29548850526050224,0.30316917189352066,0.3001217412502193,0.30620572713054756,0.3180026604037376,0.32221315209877066,0.28848059061201176,0.303417031635123,0.2993918565040888,0.29330266189705567,0.3426667932444005,0.3028114243843096,0.31427509450986796,0.3164503186577269,0.2948792858866504,0.30853992069116354,0.30467925129795576,0.2973185005155944,0.29145064223422945,0.30485339100180764,0.30383382826106325,0.3002187046028594,0.3125367224631493,0.310282772437764,0.3086625825419861,0.31670849524222894,0.3150311215952029,0.28551231062613414,0.3030136748166246,0.30474041118364353,0.3100287448899078,0.3182056871575979,0.3010245709135501,0.29694516974459995,0.2940186315922565,0.29136500982770147,0.30569921887381757,0.31456693576320466,0.2933588974217846,0.3013644821182724,0.34142624422670936,0.32162721151052953,0.3028722921164724,0.3028450104099888,0.3012722536489727,0.2904797387573156,0.3013069227149122,0.2929206343944498,0.28536752873139637,0.297936823375159,0.2944280584897102,0.3145569106305824,0.2896493454767087,0.29370664728834905,0.30723319489821405,0.28635147392804744,0.3485852033510468,0.31341906191833835,0.2948081494707251,0.3118005549081164,0.32715100647887096,0.31191619736717013,0.30801054405183514,0.29131781134675194,0.2929947406716379,0.3147751414048494,0.2872176308016661,0.32451252534083613,0.3158007908955167,0.31253085202206043,0.3434510811694448,0.31779261391323865,0.3099005429487217,0.2927955188999839,0.28850216944922713,0.32925906569002084,0.3228438181805299,0.29834056824803795,0.30383505250537585,0.3058105300092442,0.29951314290458053,0.32035769186209323,0.2936557249600881,0.31618893683788807,0.33858278687505067,0.34092353309276957,0.31289579232901676,0.2865705674792366,0.30515504306412333,0.3018734719687859,0.29475861804301523,0.31121661843625387,0.3187635485664583,0.3110432040574049,0.3024930327598001,0.34517747302576157,0.29598718621078,0.3208863728499237,0.29932975752349444,0.30629420582585,0.30149901815727714,0.3274952381498698,0.3115922980689139,0.3065398704258927,0.34191496466136984,0.3139084379437497,0.29301074521608594,0.2928391511001608,0.2934313621850334,0.2974033126702015,0.3268418981665414,0.3076891416880808,0.3326268383480795,0.3025727130444441,0.3010929415630351,0.3228742649093038,0.30811831150536995,0.29607741389543263,0.34622847983809896,0.30966020810133776,0.30236197905288764,0.30355296909963847,0.30626505207285437,0.29983584585359574,0.30066338637596934,0.30662912699272804,0.2921778223616597,0.30618458927635517,0.3037760027251387,0.31746125317842033,0.28679547445940606,0.29063548249323656,0.29912574001806813,0.3120343691758835,0.3009386238289042,0.298042134018428,0.30131168502542316,0.31348769091783224,0.2998186489410309,0.295144717692125,0.3081164366488125,0.30366986842264365,0.31277591681798694,0.2866622001567737,0.29844275024227807,0.31661112507611405,0.31214332530974087,0.3009517083745049,0.30376020121339586,0.3263722789326964,0.3262746739063372,0.2986194533761454,0.30302858254378584,0.3044132567900465,0.31016047202856983,0.3049168186041817,0.32450019791740453,0.2971695139540593,0.3066473266037751,0.3047340273685303,0.30345828222649224,0.32019542552047275,0.3305252532612949,0.3053437294865068,0.2987190307848729,0.2944899951487016,0.29910576708593156,0.3052760980834365,0.31217469404529313,0.3062366408192218,0.30085203113998826,0.29356061531325434,0.3019118356159105,0.3039344080457388,0.32170251738008276,0.3004871254173848,0.313658737209677,0.3160077209039686,0.3171157932443538,0.2928984395459905,0.3656518300447801,0.30166727171219004,0.2935315397153911,0.3144022047655899,0.3139548273567637,0.3485036847609911,0.29431922623019735,0.3049010652966634,0.29917620282340496,0.31035226319542,0.3180467733807427,0.30483862796808103,0.32029139058122724,0.31041090019152945,0.31474074172555744,0.30412005554452,0.3152372895737239,0.3042289413420149,0.32394387560133936,0.31402123099014867,0.31217483365174437,0.3236676046077778,0.3037715501931923,0.3034575630463726,0.29425832936573937,0.29398130607303924,0.3049392979148973,0.3034380953466484,0.3098511451644869,0.29767660195111467,0.32280720460707685,0.2960157878849718,0.3277276999706471,0.31375981205459375,0.298574368709177,0.3020392102291539,0.31354049473331935,0.3201090338189293,0.31035242253168127,0.3460906346755851,0.3041585419168887,0.3139750787116439,0.30624663602488583,0.3035775491121333,0.31169479497048036,0.32995994898559733,0.317263900506251,0.33275127110781666,0.30578184486056514,0.3366294665444013,0.2978601370411244,0.3528812265468689,0.3167294862080462,0.3077979819867874,0.3489122160180103,0.33834342099752207,0.3225273281615372,0.2991093358645115,0.30494236473633285,0.2973921008687324,0.30642727991706065,0.30463117603720463,0.29205888680872105,0.3085642763921094,0.32538134806620134,0.3066912477203524,0.3244727483540933,0.31030937648412954,0.30473125323800954,0.29355091019806206,0.30440225428444007,0.31677001765196405,0.3070193908177163,0.3150849822981695,0.3127882074898233,0.3292090145618992,0.31117933700002587,0.3121736986593454,0.3021868865250494,0.2980431901947059,0.2998810796661755,0.3010062466860531,0.30759423584676077,0.3116008273930601,0.3151456313995496,0.30957983960848046,0.30432224180732353,0.3233699586541932,0.3146278228254976,0.3143139625556698,0.3039689375857813,0.31336955820941165,0.32033377134497054,0.3372819534265676,0.3174674875256885,0.29898811747005066,0.3045452003898908,0.3078709464167314,0.3216622769556773,0.29890489799916603,0.3192454447510968,0.3235853846904911,0.31110568025294516,0.2974993754804925,0.30929366714343814,0.3015396063863428,0.2886430983250252,0.30605416604126773,0.2980404021417187,0.3089962539670679,0.320637515291041,0.32826931085825783,0.3186736063547167,0.3060037776974643,0.2945732054395961,0.2939836766711009,0.3169865676971553,0.29329071495896464,0.30239078974192685,0.3273219850532066,0.33547502176864075,0.3136097373114105,0.29455292902919894,0.29232478936422535,0.3016228314766583,0.2974778972549148,0.3023541572690394,0.2955834130961059,0.3179186506126169,0.30987401481747884,0.3003812672438685,0.30250229263336925,0.3137906435918917,0.31656404458735443,0.30687419832853546,0.32754924305119215,0.2996694218484963,0.3045965319889959,0.32100351564282803,0.30933486993873893,0.3182780395491392,0.29919694192574187,0.2917772040229392,0.31516165912747324,0.30650293585509136,0.3031286175707198,0.31280710091255176,0.3152037013979881,0.3020237567430955,0.30067345454093164,0.29240975939137775,0.3137338263246872,0.30475856969909365,0.3060167758468209,0.29948423302123484,0.32569537892591216,0.3105908235979308,0.3177604785127191,0.2943523397812845,0.3048956001396995,0.2950198283637281,0.2954614052240029,0.3029876821376791,0.2887820713205617,0.313818070657187,0.2934941032456771,0.29504172511369026,0.32038474900218883,0.3175563500672292,0.2918969794947247,0.3198935544069876,0.32951392354156195,0.304946297037298,0.2989310009525531,0.30669139680068,0.3348112396844466,0.31748643625802353,0.3198110060134961,0.3353543631155883,0.29808809614779996,0.3072221307495228,0.3139573638553913,0.29540546837737236,0.3330396639224327,0.2963758477258088,0.3054262461939027,0.30993722143744795,0.33778697705319743,0.3211898798231203,0.30764648022001395,0.30499688231332883,0.3092921638944531,0.290198676235685,0.3594738771854742,0.3087935339094447,0.3097776219286882,0.2981490198619607,0.31194704963195197,0.3351380033150539,0.3653192562858531,0.29713413364005953,0.29718068147464316,0.3141363557487287,0.30577105820921613,0.31256098393322673,0.30165881067147926,0.31222403683668093,0.30901450405451647,0.30521908113056867,0.30499859597003715,0.2976559191982587,0.2929340137494095,0.30441723027693807,0.3089891594742043,0.29207999668363044,0.3082542757369554,0.2957896778269727,0.30687192822188136,0.29542459738384325,0.29092910444643,0.3233664583794816,0.33035984016968933,0.29890934652789125,0.30679507544730467,0.3434953589579254,0.293309126822348,0.3097645655968455,0.32744599149425513,0.30313123129269787,0.2844845725465524,0.3070944592585897,0.3042066952502836,0.293380517260833,0.3085609733816258,0.3109085331585879,0.3153829022893161,0.2968241009729798,0.31604166596085637,0.3178739127284216,0.3136409879701362,0.31094702486716386,0.30981362312089444,0.32039712348172117,0.29642733737733323,0.2979385164683668,0.2973238458950832,0.2983047672299876,0.29946204829748485,0.2921118282637001,0.31005345604864,0.29528359350761296,0.29595310684098475,0.29546940804666194,0.31013142717359304,0.31791926665587317,0.3073578237595497,0.31221020056577814,0.30318098354004,0.2998805445575965,0.3039969269926275,0.29491403675792505,0.29527626681045227,0.3069171477928776,0.3041480170423193,0.29395151488586224,0.30185061845410494,0.30438285722316494,0.28932933181422416,0.29917557677435835,0.29099422125277297,0.3004095433106983,0.31407370032956844,0.3078870929451445,0.30741622227587173,0.3019005490996911,0.30780160309389826,0.3176546820275685,0.30723202384948106,0.29079119004635084,0.30309346829979816,0.30228498709198803,0.2951822258009812,0.28724707363733015,0.29747540425520175,0.31302294767665806,0.30150599195491223,0.3043899646853441,0.315536936657739,0.2954197820109742,0.31716565770271604,0.32168584047010157,0.29544735603982003,0.3215240210116537,0.3081175434584792
7,0.2936970261088884,0.2922636826910233,0.33196869639328236,0.3526896081705726,0.2911743329532622,0.31019796784706716,0.29750729270330517,0.307329373654488,0.30319200902525917,0.3038336032196394,0.293459363975623,0.29765521172132414,0.31126567824024776,0.31285902611361516,0.3024185269835248,0.30243635659898366,0.349270182444371,0.3205180067604099,0.30959781040101697,0.29390851038328974,0.289283201434376,0.34447551958633643,0.31264993902427424,0.29995768787902255,0.29680349403912853,0.30165304653314584,0.3027724863040459,0.304373657331784,0.29554553820977786,0.295997985099353,0.33764779286480556,0.31245739076173235,0.29261537075684746,0.3044878208835571,0.30379600127582657,0.317460437136623,0.31260952382162255,0.30073385805507863,0.30550555508886884,0.30322947601807115,0.29776209547278976,0.3177415762999422,0.3268430321736008,0.29984791002391586,0.3090943445538554,0.29715297388180784,0.30565227981842924,0.34266094168854433,0.3107173433976401,0.3108161674254603,0.31345534088569615,0.3175818456203065,0.29378396709298227,0.29870778312445695,0.29464516982928635,0.29964992212152175,0.37404713283355806,0.30991125517836005,0.2988574476712695,0.31877169644008446,0.32219704558051776,0.2998742505359898,0.30626974341737373,0.2970061286380147,0.30843312302410103,0.3062330020546917,0.29748364800040183,0.2869923083178035,0.30155178203612804,0.31447457008116214,0.30046326034877713,0.2998480683260573,0.30444438060291656,0.2968887301450098,0.2904200520642497,0.291878400007913,0.3150324785665995,0.31147226596497934,0.293188286484151,0.29236568032223587,0.3452457946978991,0.31966740581215436,0.317120919582505,0.319931760450999,0.29016510402869095,0.33624066578169726,0.3187766504831641,0.3451982892338107,0.3161300701605517,0.32795226335967453,0.3137807863196273,0.30196533343530796,0.2958681831198714,0.3295543757813789,0.31178636537081356,0.35088039448886016,0.33788570840027765,0.28931608791529234,0.3189616367403388,0.29492576070067666,0.30115283566945,0.3165402765105347,0.2922592966877572,0.29840140655325237,0.30813383269260225,0.30236385601468696,0.2953261277619236,0.3075579417078422,0.303736655924568,0.3001050492401257,0.29785707953262675,0.3029848491327233,0.3084850531296751,0.2875580817325638,0.30212112371341754,0.307192898011842,0.31638144348393404,0.2980234999361536,0.30586939138928837,0.2999600582460339,0.2972191661080011,0.3325723322365525,0.3076821008503329,0.30714196014650313,0.30395198220605335,0.3020856448429899,0.2977476559434312,0.3079935530579342,0.3114796926885005,0.3088082728477831,0.3220922035520261,0.30321040134330085,0.29575386343030025,0.2994764748964093,0.33368654081502364,0.29318412443625097,0.34826523795717784,0.30574806668372656,0.3438398073835249,0.3076915798544047,0.2968636227224174,0.3470330350935167,0.30731909582778183,0.3128073905848904,0.31602263560660954,0.301124305826464,0.29024125518076893,0.2963241512099325,0.3092094141466851,0.3322198905949273,0.31251459931704717,0.31393053536321547,0.30666386385757866,0.3067318040625575,0.310146264332596,0.32201562567403064,0.2967792218505263,0.29243079481935974,0.29124448148218984,0.29546244124587817,0.3034077033253787,0.29062574418217435,0.29728218187780114,0.2926885409792351,0.31616438137347824,0.3025508232665596,0.3046172521192013,0.31417687059399513,0.2991279945385695,0.2890388800279577,0.31834601935001366,0.2931626637060469,0.33028621718265544,0.3108875260546087,0.2933081566848647,0.31194112317917566,0.313302368825738,0.32656726570246597,0.3005727917617176,0.3056185548808915,0.3110470691753021,0.29996238095743916,0.321970742878977,0.2998304667371391,0.3635534527502637,0.3175757727900664,0.3002923348428229,0.3143162731893371,0.31941503501305774,0.30850232534251104,0.3062078266052123,0.2958232985977741,0.28922228199812033,0.341100079042168,0.307176852361098,0.30369530206881873,0.3116402000443551,0.29822312733523865,0.2966181720360129,0.2956228043996366,0.3138981333669921,0.3281202451200641,0.2938656843926581,0.31656889550623213,0.3039260823412541,0.3034501492938205,0.32103311399469203,0.3096193413855991,0.29420591079688346,0.3140906956258502,0.3182379777306872,0.32120693433898423,0.2914693246253719,0.30920715063071746,0.3027967245412929,0.3107685014100414,0.298990847556957,0.312316713256899,0.29508213358103097,0.31342704206724764,0.2915644075697459,0.3111092068611219,0.306121780036167,0.32386664476293775,0.30406817423361154,0.3282585397469749,0.30149870565667436,0.31836476512614437,0.3082842020130028,0.31825134027209023,0.3192232200253767,0.30262870372031847,0.3032180756622852,0.3064530300547835,0.30539836760412664,0.3084168193577498,0.30850242686900325,0.29999575633646597,0.29401340140498416,0.30282151890183834,0.30231921759843733,0.3021279159298939,0.3049826471666833,0.30186167043444434,0.3038408250421685,0.3077973031574589,0.30512694868621265,0.2912381287459287,0.3015342490903187,0.3345865093260932,0.3379573020244807,0.32868185141815376,0.330353829253909,0.3048560874575811,0.30320980794274777,0.31141661163698103,0.28992424815852524,0.3239193265477579,0.31481376211517015,0.308071898151484,0.3322175566401844,0.29755170037496337,0.30839353077033693,0.29818295633058367,0.30181013172238624,0.2968931399974804,0.2918723228409524,0.32722891054076764,0.30300933909060335,0.3287737729035433,0.3243752720676968,0.31867710035330454,0.3063304813089994,0.32260637550368754,0.29771285481488335,0.3200016188491639,0.30057829444845224,0.3256483545051507,0.31676668005181985,0.3158136493544718,0.3569979724590958,0.34544611258962277,0.3279729807538745,0.3088510968988652,0.30584910519271474,0.2895379981356157,0.293773579858577,0.28877758925608205,0.3141521908921985,0.3066276400944019,0.3100475704535612,0.30189921949081133,0.30484353496694944,0.3227461227575554,0.29565937985816537,0.30646807762289685,0.30081226370922876,0.317921328966397,0.3314647935034287,0.3186146111929437,0.30149778305509556,0.3032386753863415,0.34029902441641463,0.2906907756759204,0.2997480969274367,0.3002281795637408,0.3044686660851177,0.3124988309534036,0.30245497374462105,0.3000465004601153,0.3153605932621422,0.31334706416991,0.30302244542165346,0.31015316085114925,0.3196088649613886,0.31027235915781576,0.31851494056707447,0.34676044237118625,0.31398798939914474,0.29043647554231844,0.30924914320931496,0.3180292053555198,0.30633929892179174,0.31342010845487245,0.29671584672797446,0.34519516458149585,0.29191924450979656,0.3026813273981224,0.321949875557873,0.30500191945181443,0.3261097077596607,0.318498581592659,0.31365914457600935,0.3070992489648538,0.3112883892937107,0.30119021135117413,0.3046278494724369,0.30970861403156547,0.31114546725403114,0.3177275694953009,0.3117843958784838,0.2986909837553997,0.31225560554772497,0.31736383238039406,0.3134421265300332,0.3014759835515527,0.3261087079467987,0.30171129260995855,0.2890131892523694,0.3268977301439508,0.3138695506800219,0.2929633834299642,0.29171599787068103,0.30839355879141345,0.29831843089823173,0.2970589306366337,0.3035911092877093,0.30125439811770105,0.318545825416935,0.3013969346537347,0.299322113619921,0.3476049467213801,0.3123860206761837,0.30936351078214597,0.3005119771722402,0.29292958913142486,0.29366665991763324,0.28748644406144214,0.3180878519560727,0.3040228884008956,0.3100532452089178,0.35288342807015394,0.2931968667746385,0.327809300964811,0.3270548176388959,0.305378998491355,0.2934839724380849,0.302692876168076,0.3138042302038718,0.3147458873956218,0.2960781921926115,0.350200806041177,0.302075381577371,0.29575369663458484,0.3317450219017137,0.3143391335310324,0.3188197679661547,0.31704644242204283,0.3083522367061835,0.3061024884495998,0.3111117696617111,0.29255249738643657,0.3143602377824059,0.30735859732842225,0.3151944850279859,0.3016664823937883,0.3051714062528993,0.32777291975133593,0.30720555908921343,0.33169867245230117,0.3052739356952152,0.2917035813412577,0.29901271491128545,0.3134485586618286,0.36292903041383445,0.32426012909343016,0.2864267568961289,0.3158168093125874,0.3193695599503294,0.3013831491290578,0.29292544915170005,0.3028844823726085,0.3295118973436935,0.2930775227031794,0.31583687332538757,0.300889575107394,0.3059736380490639,0.2974361520291395,0.29671218999445814,0.31116742669865605,0.30390980692325753,0.3074426633756492,0.304375690595262,0.3155314178404178,0.31299094221659657,0.29508991844679605,0.3077237469163808,0.3027431512923966,0.3095987794118397,0.3365262901140016,0.3088954768768647,0.29730766794973756,0.305937607846089,0.3498345402858893,0.3027325075178159,0.28922742220022707,0.3119367844610304,0.29656307787416447,0.3022233526852103,0.30223789315659333,0.31452015750291695,0.321970827140586,0.3278482018660281,0.31631534325897787,0.3121882537808488,0.30357779039461147,0.30848450422443574,0.2898126370395125,0.31370651561563656,0.2961945042279914,0.2946253520314473,0.29187875948149233,0.3117086065949876,0.324310897294328,0.2988305467971273,0.31164062335000553,0.30263109047948117,0.2900150915835752,0.3253588411492135,0.2988583251420575,0.3163475103730134,0.3038715903173348,0.2900709202403125,0.3019984667132804,0.2939498181876917,0.29832038251215215,0.29263466884004313,0.2928588096446609,0.2954833767126079,0.3094581648954025,0.2990801934036663,0.3068971270903701,0.3432485433448028,0.309931038974146,0.30632167848558056,0.2970206404150988,0.30231507831340126,0.31474238401663357,0.31569355330577176,0.3185790637792319,0.30324606340737237,0.31506723221353267,0.2994621191131822,0.2993028751248604,0.2894170297106093,0.33726005532447145,0.35066560721468043,0.29584075253676834,0.32945274681216985,0.2908495856396378,0.31515188387121457,0.3307987832155362,0.324084952662566,0.29729968142286844,0.29942141891067353,0.3643780788011135,0.31794937839001497,0.2872565847533177,0.3166123628886855,0.28977877042167877
8,0.29005312781913234,0.2928631937934783,0.29226114414838694,0.3455485006989562,0.31170529995175855,0.3039478279770948,0.31153505710235446,0.2947710142338046,0.30177019010467504,0.2972787129190324,0.2985901148221839,0.3021517682639481,0.3224975089682527,0.3145135197262437,0.30620203242002103,0.3168923812724477,0.32170439260485334,0.30886570183158973,0.3169672007120271,0.31254812835102896,0.29728693833338415,0.3257601803776241,0.31637323433729525,0.3319538358695354,0.3028434798354097,0.2988527766727985,0.2893530463953256,0.3109614508902222,0.29620912223556584,0.3169783269872014,0.3447028619673905,0.317616461297709,0.2897105182504679,0.3021717313971406,0.29763819836646277,0.29234240453403393,0.33796094279926725,0.30511646042428,0.2977230510641195,0.33300368281243037,0.3244483031594721,0.33695369701722977,0.29998012131705265,0.29879277272949556,0.3066164069585248,0.290145993004674,0.29373582506649604,0.30320664929385877,0.30630417365834783,0.2996328648437769,0.32241891637759135,0.3212614343850881,0.294458438467655,0.3071590371243479,0.2877315670636459,0.29962283952861135,0.33320989814802143,0.3070120593573905,0.30064930580833316,0.2952635058992975,0.32605737520817685,0.3087066735640966,0.29309672424155236,0.3076441422583941,0.31678128484794943,0.3001170815801479,0.30047399681354764,0.30418742428372203,0.31305362732643327,0.32919900073405167,0.3079322548929416,0.28613866816154365,0.2992961469088533,0.2851491043129368,0.29075254540580914,0.3019820585126528,0.3178020107617086,0.29728538861150133,0.3102824716872735,0.2960369560497076,0.3230482750786215,0.3036887083136232,0.31595317554223035,0.30812609234604904,0.29283841624230667,0.3321472194613718,0.30136319051358773,0.35165084846063704,0.31826017033599346,0.30274672214744247,0.29598370710327065,0.31125647045148197,0.3109602603160241,0.3110087580913713,0.311867034672319,0.31905455285987816,0.33413291018829694,0.3019024213898994,0.29981081336516363,0.2934930148926323,0.2896365902702768,0.30146582431263647,0.2976629804006694,0.2985646663866381,0.29805632665508097,0.2956492469674078,0.29148998492505446,0.31028065009393535,0.2949864984431596,0.3020629959318873,0.3004331060963081,0.31642650650914517,0.29518383301623197,0.3162661527389061,0.3085565130536625,0.3158892011481046,0.2975233401998391,0.3190965576045992,0.3084453437577789,0.3108169129692479,0.30756511929492736,0.31002373012353746,0.30840056802694776,0.3257795541670642,0.30460614348391324,0.2973771965866677,0.3143744384587391,0.32044037942191245,0.3062521659481554,0.3004141199520459,0.31391071598381026,0.29755301583833826,0.31013776309494984,0.3084191194513691,0.301734380518658,0.30223714227163234,0.31286101888065243,0.29629136666298805,0.33696520671358543,0.2958855311351659,0.3029767596053413,0.3043551833587952,0.3000178952970272,0.29579464695306695,0.2909631785597999,0.3077081672989168,0.2988239144013058,0.29013497782754744,0.30275559362870996,0.29816296136603576,0.3014431146748797,0.3171338457158829,0.291224340036821,0.30787468478901203,0.3077973551711837,0.31030657451230725,0.2902331947668057,0.30046066445473657,0.3006950140669805,0.294531266967882,0.30352614183819376,0.3011324954390253,0.29949028709192044,0.30369888280152746,0.3184401052900173,0.3003681074999063,0.2972268134185282,0.30967523721681667,0.2969976882117938,0.3029192512904929,0.29167965191613465,0.29592992302436494,0.33663181992280283,0.2969591354522759,0.30183451403854566,0.300817640167689,0.32050857543747097,0.3052281849795398,0.2865451597245009,0.29258808277315407,0.31808965492080654,0.3225371052815377,0.29818009861252226,0.290674502463995,0.33783069186365505,0.288550444529423,0.2936173307537168,0.3068469404528954,0.3292505898911059,0.2936475178695964,0.3083491822830043,0.28846413948994887,0.3093743108208893,0.3224520198271118,0.3012499570552808,0.3033474213742822,0.30212192821972306,0.3066565934763322,0.3325779987411778,0.29468059576068,0.3293822660008994,0.29973058813873743,0.3069670871570905,0.32927395710406593,0.32026763796035673,0.3037019490262821,0.3329588006169469,0.3049353129314329,0.3014202675956036,0.31197809559787837,0.30717514277489305,0.3024144198279498,0.31115473186289955,0.2992628816037456,0.29391592607099626,0.2991137863042298,0.30711939602111527,0.29643706514246954,0.305407954342354,0.323640412922473,0.293739948713457,0.30430082065976766,0.3234904210383898,0.30548843609208404,0.3062513266917049,0.3218173777173576,0.29729304010431373,0.29009743598874943,0.2935773966442183,0.3235420180001508,0.3181277620980546,0.3060011560817867,0.29349734630553925,0.30831344275576866,0.3131056356642142,0.3059529880434181,0.3159242062268526,0.30239087353731875,0.32921952957604356,0.30622372727446184,0.30402213476844875,0.2886778048076758,0.32583157693478204,0.3339970735979903,0.2926252082355923,0.3593744805361961,0.2990321624171067,0.3019640546722232,0.3017449038646444,0.30466806933046325,0.2967834503052152,0.31981847731711605,0.3279294471282939,0.30541432175648914,0.31841007955301387,0.3235040288008387,0.3114128546905467,0.3222486110465965,0.31485081260492054,0.29428252659875864,0.30953960624328036,0.3059602180440819,0.3050248524012566,0.2981214057729804,0.28718413719624325,0.2923329611607507,0.30419041677841263,0.33800775760997015,0.29152710192630005,0.3130298096650268,0.2959346245447581,0.34520836128888727,0.3005482678637601,0.31508504527056613,0.2927297273575017,0.2959324946614298,0.2995226734040244,0.3205635681383584,0.31690149154313596,0.35166205526709315,0.2904723419792322,0.31223428675779735,0.29037207996950226,0.30410957216876583,0.3057314091204711,0.29495713033072934,0.29407358603076816,0.297195597915872,0.3313682473756828,0.3024833767338041,0.30857082356162685,0.3165488323712785,0.3196549445355633,0.298297644493684,0.29858397771547146,0.3021111387410687,0.2932917809070585,0.29629461596549655,0.321133825864307,0.33230867419416643,0.2903227479268353,0.3192002684538386,0.33397542005272784,0.30854305018156103,0.2997525540470044,0.31068298904336256,0.3264315820549192,0.3116582767974459,0.31476654852444963,0.29349768352503636,0.3211983413422494,0.3142962363186409,0.3090590731120427,0.3174222325414665,0.311515478694277,0.3101361162795063,0.32095529860692934,0.3194691046005079,0.30881186374183095,0.2941737299338546,0.3123921015340126,0.3055156520371464,0.2857855406410134,0.3148232787288018,0.32907081962212226,0.3280065950035512,0.2996222220604166,0.3094995413220134,0.3008229233622799,0.2905103537018577,0.29660978779560465,0.289786411946913,0.3145186108397885,0.2912990274704823,0.3058253622192543,0.31647395134247747,0.29279693678657764,0.31276039150911156,0.32748045696970957,0.3348195033440594,0.3163676876403618,0.2989926479016269,0.31020774949751523,0.32398028435597614,0.29641147644080196,0.31696596833963686,0.30496665081380636,0.2988669010544823,0.30842563574148313,0.3191328285018759,0.2987603038206899,0.2883026518633806,0.32620954836120497,0.319469945720842,0.2968260265782797,0.29608330118670073,0.3037477666404892,0.2950062751523139,0.32451539101259985,0.30772476030164664,0.309099623065284,0.3426660358739685,0.323526214463621,0.30243336183117536,0.3062996141440658,0.29072691068793,0.2949965418640527,0.28591449450730744,0.30831175125896465,0.2981983092153543,0.3060456629518233,0.32284652328925023,0.2897833339563075,0.3210005290921369,0.30366099851194484,0.30438108081161064,0.29670660990719866,0.3198048616331929,0.30783168098310154,0.29575917379031263,0.3055484379205623,0.32866804318395076,0.32251068537601474,0.31161605302333195,0.30737444307710754,0.3203912605602264,0.3179903568530451,0.2975686270834922,0.32054183820347826,0.2928369340303535,0.30037168535698905,0.30423801381513715,0.31755342435669287,0.30754799297956403,0.3196223189426656,0.33014924857369976,0.30596585956679767,0.3233128352946298,0.3139947927668779,0.3486590398500763,0.3089046790751694,0.30399002549257875,0.29931459795533144,0.2880412347978729,0.31947038574852243,0.3322944622746792,0.2922442492241035,0.31536655336981473,0.3071374518620679,0.29633450303863496,0.30705784865264013,0.29088030588124447,0.2959420129676543,0.29280203398179716,0.3099365641804737,0.31722236808903775,0.2939721663076415,0.2996205437187536,0.290945293071651,0.3271568980541968,0.3013559149617362,0.30158371266571116,0.2979571074282128,0.3060479713297375,0.29285211369557007,0.28788794684881525,0.3119202059085874,0.30742758841803364,0.28708237210750853,0.30714417307276204,0.31020503665793164,0.29157846244181534,0.3006895240201771,0.30817225941326276,0.3040231867711189,0.29880711636055085,0.303983902688142,0.2967036311035241,0.3010075846861937,0.3115354410166186,0.34027849335521576,0.30657612559285496,0.32809580225268936,0.3664271568174387,0.30737380711953094,0.30912115139631224,0.3182942718156437,0.2919311454462968,0.30524589171658134,0.30008395462608434,0.29083502436809083,0.29781804537004225,0.3153948710085376,0.2912758309490629,0.2966592011489988,0.3173816423592247,0.32783015409487637,0.298050544740368,0.3116498017449134,0.2943795733284695,0.31027691659098017,0.3018540121412788,0.31375842159715606,0.2968887857019989,0.28880960295134933,0.2949115820758537,0.2932313007561608,0.2852357748247141,0.3207823441147337,0.3091362146563133,0.2879282129563506,0.3219500005764403,0.338250474876616,0.305502829482752,0.31255442761269536,0.29966889984728884,0.3097883363465963,0.3230432533825477,0.32022015920216174,0.3167400547408062,0.30795624103249986,0.29458893956332066,0.3078697773211669,0.31408834889897413,0.2994312772044171,0.3357874720354471,0.3170700500728992,0.29690813119307025,0.313196510230782,0.297582321714082,0.31078861195539514,0.29639823734263204,0.2994800223622484,0.2932245527112537,0.30070984274071316,0.33333269355925377,0.32373301266258014,0.29690659003627834,0.3087183259432414,0.31078394376927176
9,0.2925427221390446,0.2961032667098126,0.3038141595861469,0.32452559105324896,0.3015594138282127,0.3164129043818797,0.31332112731836376,0.3048068330230662,0.29650168068893096,0.29779025062847303,0.2879474635733229,0.29089354599068934,0.31615402477751603,0.31275044282328424,0.3184565520753185,0.30859559637074047,0.3157974971374439,0.33094047379492564,0.32577519262134574,0.29917545243240484,0.2904657303378714,0.34964275498393493,0.3087027434625398,0.31397006450752324,0.29578545922129884,0.3015898018686167,0.30046763799873866,0.2934987797721361,0.3126365803109136,0.31609406218863906,0.30911403816072264,0.3334624698445806,0.29975127003467883,0.3298062343311433,0.30494162962604054,0.29416374431263226,0.3252662524347732,0.3241889543367664,0.3309117490613667,0.3254729433756025,0.30300228886758324,0.31750621308679466,0.31086958777825513,0.3093713529825029,0.2922869665172054,0.3041896021751546,0.29116783792862877,0.3128659053221726,0.3183970246582787,0.3195235545951923,0.3055319306733046,0.3175322190854846,0.29048330798783956,0.30795356364097304,0.29017674600855203,0.30992458605636564,0.3305634197451723,0.3029815469697973,0.29840350093989676,0.2988043300185057,0.2896332786612457,0.29412622452027926,0.3031858506317958,0.30919069542398414,0.31633102090867016,0.28876771558402115,0.3147243079467353,0.3041027562766553,0.3033529106826395,0.3055874249324174,0.33375166302332576,0.2896215631799175,0.31173744776192164,0.3007036247593594,0.2952963912620293,0.3121181978833615,0.318092163049667,0.2939526612887137,0.29366720879974206,0.2858446324387788,0.32255256107404806,0.2864184736865496,0.30084552815663906,0.3173512732749641,0.302809336314129,0.3288298900925025,0.30326466931278073,0.30616081969124237,0.3204022556921596,0.3392332513514825,0.2909477080444179,0.2969890555405705,0.2957575174294981,0.31129708741339135,0.31529153198553395,0.3248058370448471,0.3219729988519472,0.3034615001767497,0.3141699117155799,0.2935823642918625,0.3180591552044282,0.31809605815258907,0.28934997093934195,0.29634463096410074,0.29984994121473246,0.29262141080563103,0.2887284440426208,0.3041031873589374,0.2991888085567783,0.2912071247072846,0.3127711867592953,0.31380819718637776,0.3117889498443995,0.3185675192584766,0.30168598328122775,0.31679676519896827,0.3495058554131222,0.30015622522986074,0.31968299118279075,0.3298973666783276,0.30668828916883883,0.323577567110242,0.2876137447041968,0.33173076249223293,0.29159901554027085,0.31967413410667145,0.3286338816170097,0.3072027429184236,0.3121263481923913,0.31567865560458686,0.3249945809385985,0.3143264407607308,0.3181546910635181,0.3001290286962262,0.36842500838925535,0.2889180671895134,0.3232734443134968,0.3092182988301896,0.3208046547837755,0.30642635342269026,0.3005320662152123,0.31232022219663413,0.29907486433737135,0.29125530754796625,0.33167583329001704,0.29612231879163226,0.2958139429223795,0.2945020123357425,0.2991568495766766,0.32933701964601286,0.32280093466699744,0.2941765056789008,0.28767517068285525,0.3123578882811596,0.32341606476099793,0.3300227600928276,0.3023606268530223,0.28627719700085014,0.30686809957540484,0.315658639759002,0.31302148448866596,0.3010334256462922,0.33440797652394405,0.305171813303322,0.30770877227650695,0.3176719129614774,0.2960963162544236,0.29123714222392627,0.2953514996802062,0.29675860485105915,0.3091271473003935,0.2898648498856542,0.30735513241219586,0.30021649343495416,0.31018261994401136,0.3347031472862472,0.3073973365986352,0.3019697497242048,0.30677966818530483,0.3041380031739366,0.33698370924881854,0.3160498426332484,0.3109183417608934,0.30380601812909624,0.31244623990541165,0.31879789238805295,0.2887257675583784,0.3076193654210219,0.33026741726320913,0.2888703013245347,0.29717172131629754,0.29711520763905497,0.29287410048344875,0.3144301285168133,0.3229284628791299,0.29974753125449516,0.28953647937396954,0.3084977739070771,0.30330760078019237,0.2986768830839397,0.31172024814619415,0.29926813709335537,0.28903628347355015,0.3164216325022656,0.3123647364617325,0.31736388699326123,0.3194575511277097,0.3068505809587595,0.2930960597284521,0.3286733294290184,0.318014113404407,0.30945421683346386,0.2978117553481053,0.3137848874225218,0.3147237317972876,0.3024924778247339,0.3122661876516395,0.29181286935335204,0.30292461038844004,0.3109135095073675,0.31115637000787444,0.3033549627288716,0.35007169550130235,0.3069045161092757,0.306410356616308,0.3337297780095714,0.2955660989383058,0.2960493410005196,0.3097629660198035,0.31488334046702443,0.3026539305494958,0.3024253610690285,0.31307216646594815,0.2925420319114195,0.3133314414169896,0.31631763075145464,0.31563200140966985,0.3008064884864086,0.3929397984819072,0.2998308772667478,0.2940520098862455,0.2988175604893615,0.30527960721632097,0.33507530900954746,0.2943020620027702,0.3470935249546573,0.2948393858790565,0.3060247912728963,0.3095391904005149,0.34093574351045197,0.3120376381640064,0.30959143594280547,0.35384236406875735,0.30030796924566533,0.31466861687164227,0.3042627738687713,0.2977466532866562,0.311446872125279,0.3067626979468042,0.2985051937223192,0.314900910859059,0.306213276777774,0.38261714337172614,0.31137488404188385,0.2882789903749319,0.29734944073084807,0.30259680784696374,0.327690535464797,0.2962429742634366,0.30248475145536785,0.2990346412087942,0.3066152094433097,0.29694240902090663,0.3188141739868434,0.3098177213959631,0.28936107003050693,0.2963136098173428,0.31952996278117135,0.3002105859479892,0.32202696607429177,0.32763881778954945,0.316373167644997,0.31731586628635877,0.32530982903987626,0.29848632164711125,0.2918410946181054,0.3181857392044231,0.3069952408590463,0.32821179751083585,0.31207032356998154,0.30455823091060374,0.2996376202633606,0.330293634806304,0.30318853962262404,0.3066908790642821,0.3069896786096293,0.2978141588924176,0.3094919027683277,0.3388416134935027,0.3211888810125513,0.31186208723915326,0.28763777183977723,0.3173525684395112,0.2922892743723754,0.2957393923401802,0.2989327720310709,0.3077711417878371,0.32628838507116004,0.29420539247780453,0.30540201146634205,0.31643873616989804,0.3182174822773633,0.2951294698730233,0.3096600155942793,0.31681495713810903,0.30576668071502083,0.30557545854985774,0.3145212963053323,0.2915619794553971,0.2997831998910337,0.3109998944257311,0.29480067677108523,0.32139903749785353,0.2996406487477403,0.2873706293869226,0.3272757222412585,0.31267646587225534,0.3127689368326554,0.3041569877353732,0.2899879562588622,0.29391334302723865,0.2849476565764494,0.31282324049395915,0.29411525115901316,0.3114202569438587,0.30237957734716525,0.30028642833720987,0.3139488403695322,0.3320462745627941,0.2976610428059767,0.3016112990111136,0.30220309981364607,0.33066917340663937,0.3184670085504534,0.33508516145582423,0.2929114844266746,0.31163395210546013,0.2984565449658091,0.30404381468918035,0.30222778998646094,0.29365298818554086,0.30924016416088007,0.29244919110661066,0.3040270606244158,0.3176998098522444,0.2964777806304987,0.29255059265109773,0.29983879261174917,0.3074471028712076,0.31399569697311575,0.31771909703881407,0.31006744209939313,0.3126969549532869,0.3218974686729447,0.2905524956682974,0.29960063987815055,0.2943406413298933,0.2977848832251052,0.29733063797342785,0.3013435277346485,0.3029951302734827,0.2976223106857414,0.30573409418231096,0.3044243417389742,0.304138224253305,0.3233434900777989,0.3090702476494933,0.32777242201728807,0.30219940410952756,0.3108159904670284,0.31459439825929564,0.31921821976108544,0.32383087819516054,0.32764660009004065,0.3025446693045609,0.30256177883528956,0.3101686884235896,0.3222121494840707,0.2920347161259755,0.2890778034266695,0.3031633407544988,0.289430007064178,0.3166056890299053,0.31193489957754333,0.3257566112274585,0.2940050377376453,0.3004894094980336,0.3020259615183264,0.3162212482887745,0.3356028948406727,0.3449783831074982,0.30212911992933794,0.29915375839054603,0.2972687376551782,0.33026533325491436,0.3458548893432097,0.2914765350782427,0.30747539875144786,0.3114890863765955,0.2922979323741074,0.31884030939146,0.29153044986719323,0.3122081952506779,0.3121661497715452,0.29887569009736475,0.30317506107592634,0.29956551118090485,0.2932614220931959,0.2918929924433561,0.30681492145259326,0.3092144092968675,0.3028195082376643,0.2864346526938338,0.30129752632725587,0.2933347346107606,0.2943486456691371,0.2941503664442646,0.3263664750615777,0.28972305165919393,0.3388638285616327,0.3021573881795199,0.2937031541074472,0.30096218689391924,0.3317587895829833,0.3024235128226481,0.2836653581034406,0.2920708442602045,0.29267830285936414,0.3064510147657632,0.3413270607078593,0.3350203872785367,0.3291292860464197,0.3400694115001343,0.3145087356941679,0.2999951736702518,0.2995782624791377,0.30529868154048806,0.3007127144433603,0.3067053402423682,0.332006537739549,0.30177339179287954,0.31358148133513647,0.3103663149874388,0.3098458421317825,0.2989512549385302,0.2967457863310026,0.32215350470795634,0.28996146019365276,0.3273307878256945,0.30635631021654464,0.31041036114020387,0.3024094087999932,0.306702194371684,0.31193155988004473,0.30537509041541194,0.3113087907869855,0.2923537674466247,0.29216539047532664,0.30669839231631624,0.3243772362940719,0.3055408268857229,0.3100697812976868,0.3022463096246607,0.31407688657662713,0.32134375210171007,0.30336002062905587,0.33933371458544626,0.30679357153531106,0.30965218603844447,0.31968140655890526,0.3030724690802208,0.2991668772174806,0.30208253843493094,0.2968515423280051,0.28629089192388973,0.3274388637272966,0.3089236929537081,0.296731979345766,0.30760114626885754,0.28678312885818075,0.2972507213891758,0.31935182347350877,0.3180407021033484,0.294639185532508,0.2987840472844122,0.30898140770312355,0.31931191730046116,0.30365011957298227,0.31109716149607636,0.29940533391726426
10,0.2857234539983235,0.29978344254386113,0.3174356603567817,0.34270141570454604,0.31542222700693917,0.326108835054134,0.32975066902055933,0.3013900855147834,0.29088757445414204,0.318605497481581,0.2976619203454107,0.3160423833902931,0.2972592184914921,0.30928749841812775,0.3101009978663075,0.30040950846634457,0.33673934593592714,0.3131595891730758,0.3251217479900807,0.29676664614043596,0.3129702121099824,0.3533460703472581,0.29681946940574633,0.2942887143688727,0.30226902091880264,0.29168341804732745,0.3008406371070672,0.30100840145038,0.31263798907886614,0.29900551861172375,0.31215006972537673,0.3541966701509578,0.30309995201253,0.31915835384461366,0.3001117542007655,0.2984178310594043,0.33281036027032496,0.29919366162295385,0.30765674482507105,0.32838503410461245,0.2966114227404847,0.33272213986683374,0.29638596978286813,0.3171215400836864,0.3135299231023319,0.3186976882025235,0.28737518228088466,0.3174045880313453,0.3190389206466195,0.3276333468267591,0.323484431055495,0.36698154763780105,0.28904550037337384,0.32288854458902444,0.3020669787897733,0.2899064844703941,0.3366817233573254,0.30503105277254355,0.3058915726118135,0.3064428712885677,0.29019563557151185,0.2923725603620069,0.3194384098332106,0.30353848607764944,0.3175303832764127,0.3050018525877135,0.3303467989519343,0.2959649459532408,0.29996985124214154,0.3137837515810908,0.2974178425767103,0.3020677403345156,0.28985925203904106,0.29988932889673625,0.29105092774008356,0.31581645680504594,0.3062331939852268,0.31113729525806877,0.3054231024521052,0.30201860615703807,0.3296490021554741,0.2962627957194528,0.36408716824911364,0.30786712678406797,0.29698833628838894,0.3422881897747125,0.31036937146230265,0.31587630433480235,0.3095561655471138,0.3050899136480282,0.3004080607995663,0.31285276129143125,0.2908798828731236,0.30605120847282224,0.30003287583700045,0.34972489038504007,0.34461687231131244,0.2987837427721564,0.29742218903093004,0.3024484305433755,0.3064259842856671,0.2980706875679492,0.2935465021439074,0.30722209525343375,0.3011441947561122,0.29727892554767676,0.29225711674800126,0.32461619773243855,0.3085772742725616,0.3091003205315511,0.2906032580183351,0.30664364632917823,0.29502502618971294,0.30039053374696756,0.30792919112370587,0.32014293761205714,0.3362291435379453,0.3222449599161229,0.3158806558040889,0.3066566581489013,0.30441792345818774,0.33454171449978554,0.2907147838641765,0.36202531596639737,0.3064584350057004,0.30829989000514835,0.33732543654881014,0.32224355934980226,0.2966380927420976,0.312767748578639,0.32109637809594693,0.3128846178307361,0.3074258565930026,0.299345645798766,0.335716208060056,0.31892055098935235,0.32635902188769084,0.31790242890203385,0.32604824090324624,0.3049175129722687,0.30185855046569254,0.29650376524177935,0.31142646058342816,0.2992284224423729,0.3122999647357573,0.3016345301344522,0.3089120890320797,0.2921083251442972,0.3179147120504238,0.31819458330354633,0.3251763087199167,0.31682637852568535,0.29865873787870284,0.3028935114651077,0.3034203205597562,0.3166749407152746,0.31738638021682924,0.31284000818773283,0.30518979515004563,0.2940255091133806,0.30235365539675857,0.3032938366561676,0.3015444251723286,0.2998924522266441,0.29783006501214865,0.3204913614726121,0.3006830374430601,0.3054248216710814,0.3032532024293617,0.314286289140346,0.2997713416551314,0.3079468022006491,0.3166627075440876,0.31753029551311174,0.28862826684818876,0.32753432797424503,0.3144376647741895,0.2975236780446084,0.30135287127900373,0.3118819201371397,0.35345561356775074,0.3168951861817873,0.3082040928555657,0.2898855820632001,0.3148505252742648,0.2944360565625495,0.2998863047279573,0.3298641977750948,0.3169237522756191,0.2871271758251896,0.3084627752139986,0.3094960652684181,0.30551511658621683,0.33099087622972834,0.31056493938890717,0.3077609053464605,0.2918062433459924,0.31235510297293534,0.3058219011133546,0.29814524711099083,0.3705199326698142,0.3022406537555721,0.29404209983307694,0.3112391499672136,0.31386468845816207,0.3016786419128322,0.32260741047174657,0.30450138817507216,0.29102545080594394,0.3026743356324117,0.3226636339961527,0.30247751377011095,0.2976292779767246,0.3199739862761636,0.30830551971876946,0.29515924080218614,0.3223451821902425,0.29924648620162153,0.31426834837182127,0.3203093949713757,0.32659911033109623,0.29406154348334884,0.34272134931683307,0.32235291378220715,0.3041309013734637,0.29798441911651335,0.2966843817218418,0.284872539522074,0.29920616283501705,0.3132759123589081,0.3102410791222627,0.2992841310650267,0.304332054685453,0.30522360943492133,0.29798581249242784,0.3032245740436213,0.3177991865865821,0.29725561775224596,0.3343692511874537,0.2964796291714603,0.2928788347779066,0.2890997075349478,0.29851640624350173,0.3187095285073762,0.29635420208369895,0.31478502412067083,0.32467006968859574,0.30973162454787795,0.2965112697705367,0.3328119389167169,0.3030763035461566,0.3138839041449086,0.3656815196309378,0.29746470829716903,0.3369345838702852,0.31190829024196615,0.2983532439388349,0.32058510489776076,0.3067519516279235,0.32383951248342135,0.32083943352640615,0.31728510059408455,0.3196280743588212,0.2955821873025676,0.3131025408544371,0.3216131158967726,0.30539380527246107,0.3321519331955894,0.3091774688446471,0.30576574779317545,0.3209258301506718,0.32661433952931207,0.3086597932634302,0.32332395195627134,0.30912936382245493,0.2914029904976074,0.31484574410785615,0.3451208594601966,0.3127063019312555,0.3440110589670454,0.3424340346805812,0.3713116632220722,0.3135560466658246,0.3048682376984166,0.3101532085489252,0.30054202712245265,0.29290104623631275,0.31791113763954987,0.3076653030487375,0.30964525503300805,0.3121579091925871,0.2994795556337715,0.33933857839889786,0.34022362613099716,0.29515412899989224,0.30454757880182315,0.3032050017571522,0.29791462671905644,0.3590606276776978,0.3419310190153887,0.2941505095606801,0.2928866753347868,0.3347986070141414,0.3031168026815928,0.3059675016003699,0.29572828122423395,0.30543374190735917,0.3017701969925687,0.30501262433187837,0.30910235433504957,0.31648391751015775,0.2899683780964161,0.3151451509142861,0.29833628808686646,0.30147137330258866,0.298661207545596,0.32403874153417417,0.32419323962582663,0.30575428956243517,0.31751230058251084,0.29705532802989454,0.3185475043346177,0.29920635147217983,0.3090858343846698,0.2890280321487635,0.3290874698534746,0.3130399088252862,0.32072630466436347,0.2977676794909495,0.29931808430677165,0.3013073873897956,0.296420209443114,0.3239735570488233,0.29125285152250113,0.3119219129583474,0.3119450475376415,0.30965980299369755,0.3095862160302608,0.3204367522175552,0.31081804381834777,0.31004118312355816,0.2956655028037316,0.3122204646613402,0.31913401168335676,0.30767912420957033,0.2970376467002517,0.30702721804016775,0.29904907072405235,0.3036453599930372,0.303372924742838,0.3045746369306447,0.300225614324572,0.2895659234104079,0.3383700566790493,0.3167341504599276,0.2982526010690788,0.3029299011358163,0.2960693651155523,0.3033406110746373,0.31469688129879436,0.30551910725093845,0.3104443595357616,0.31831261101141495,0.3017720575899771,0.32620441670298456,0.30692265846524225,0.3006899005595042,0.3112835563599839,0.32711322489478595,0.30807528741957907,0.3209363663205239,0.3025580417410171,0.30575845370111343,0.3199285076249012,0.3106828595779245,0.3103365145791209,0.3035976300124717,0.3073750316940488,0.3079712806302962,0.3047382470933321,0.30238224164210253,0.3238414949399857,0.3494428157806263,0.36407864751494173,0.30826573652577605,0.3017493029286674,0.31307518563644104,0.33359904435689997,0.2990719573335216,0.30767452402469997,0.29481806849362957,0.29175033408052825,0.32725869368691773,0.3196814843279659,0.3329347641366683,0.3005464693920734,0.29303081289053134,0.2967298326027066,0.30494274481005307,0.3280013778627642,0.31774542873429207,0.30996126431388193,0.3029101260111752,0.3112257283405305,0.3399149015071202,0.33717661604677723,0.28520005383192876,0.3171999056531261,0.31238994657176955,0.2924696277930511,0.3134201973866835,0.29717788899853514,0.3116786877480611,0.3024039846133128,0.3118718839318435,0.3061980989593608,0.29388616895361863,0.30541809574823137,0.2975968201423524,0.33559701357347105,0.3015594079004395,0.3175778185020242,0.2839324641152369,0.3162450195716554,0.30035015036060714,0.29591039258808244,0.31588082692758424,0.2949706766337731,0.2984742896342656,0.3020395046895278,0.29874133472930875,0.2987517132918355,0.30763847808572914,0.31055989892394237,0.30162734162225985,0.3040638593101165,0.2962667539991479,0.2941975848382368,0.29668469235189576,0.31388342994704654,0.33644177303491285,0.3117350218635617,0.30103528417119557,0.3216645474273717,0.31097311523847027,0.2994886737447099,0.313869311929615,0.30271990696368667,0.3098533787804663,0.3136046976084715,0.29065499037575065,0.30652386246090496,0.3038618703858765,0.29239298217043336,0.29195172384487356,0.30482042338000404,0.3431037711297503,0.28420005174533075,0.31222257828253863,0.2983849156317124,0.31585979255006086,0.29162133744989566,0.2902521349978656,0.2920737666270682,0.28982790239434725,0.30539913670788993,0.30337244532619817,0.2893203216163339,0.30022118894049826,0.33234463689007177,0.29996991001202966,0.3487292306984052,0.31444725887993114,0.29857704945867625,0.3144893544910156,0.2927752368282093,0.31391846331229384,0.30706997580218237,0.3269926493050251,0.31550849967574246,0.3183129408349168,0.2974270397396116,0.29998531040573956,0.2905950025846533,0.2903433150491006,0.3405964185510722,0.3327933338464388,0.3091442718144568,0.3344287887212134,0.29449979502543777,0.30247256356904384,0.29941312304599377,0.3171877188502811,0.30802219601543046,0.29147738436247184,0.31196805495645674,0.34870048478024096,0.3001305293450187,0.32784041306633405,0.3053395007314217
