t,rep_0,rep_1,rep_2,rep_3,rep_4,rep_5,rep_6,rep_7,rep_8,rep_9,rep_10,rep_11,rep_12,rep_13,rep_14,rep_15,rep_16,rep_17,rep_18,rep_19,rep_20,rep_21,rep_22,rep_23,rep_24,rep_25,rep_26,rep_27,rep_28,rep_29,rep_30,rep_31,rep_32,rep_33,rep_34,rep_35,rep_36,rep_37,rep_38,rep_39,rep_40,rep_41,rep_42,rep_43,rep_44,rep_45,rep_46,rep_47,rep_48,rep_49,rep_50,rep_51,rep_52,rep_53,rep_54,rep_55,rep_56,rep_57,rep_58,rep_59,rep_60,rep_61,rep_62,rep_63,rep_64,rep_65,rep_66,rep_67,rep_68,rep_69,rep_70,rep_71,rep_72,rep_73,rep_74,rep_75,rep_76,rep_77,rep_78,rep_79,rep_80,rep_81,rep_82,rep_83,rep_84,rep_85,rep_86,rep_87,rep_88,rep_89,rep_90,rep_91,rep_92,rep_93,rep_94,rep_95,rep_96,rep_97,rep_98,rep_99,rep_100,rep_101,rep_102,rep_103,rep_104,rep_105,rep_106,rep_107,rep_108,rep_109,rep_110,rep_111,rep_112,rep_113,rep_114,rep_115,rep_116,rep_117,rep_118,rep_119,rep_120,rep_121,rep_122,rep_123,rep_124,rep_125,rep_126,rep_127,rep_128,rep_129,rep_130,rep_131,rep_132,rep_133,rep_134,rep_135,rep_136,rep_137,rep_138,rep_139,rep_140,rep_141,rep_142,rep_143,rep_144,rep_145,rep_146,rep_147,rep_148,rep_149,rep_150,rep_151,rep_152,rep_153,rep_154,rep_155,rep_156,rep_157,rep_158,rep_159,rep_160,rep_161,rep_162,rep_163,rep_164,rep_165,rep_166,rep_167,rep_168,rep_169,rep_170,rep_171,rep_172,rep_173,rep_174,rep_175,rep_176,rep_177,rep_178,rep_179,rep_180,rep_181,rep_182,rep_183,rep_184,rep_185,rep_186,rep_187,rep_188,rep_189,rep_190,rep_191,rep_192,rep_193,rep_194,rep_195,rep_196,rep_197,rep_198,rep_199,rep_200,rep_201,rep_202,rep_203,rep_204,rep_205,rep_206,rep_207,rep_208,rep_209,rep_210,rep_211,rep_212,rep_213,rep_214,rep_215,rep_216,rep_217,rep_218,rep_219,rep_220,rep_221,rep_222,rep_223,rep_224,rep_225,rep_226,rep_227,rep_228,rep_229,rep_230,rep_231,rep_232,rep_233,rep_234,rep_235,rep_236,rep_237,rep_238,rep_239,rep_240,rep_241,rep_242,rep_243,rep_244,rep_245,rep_246,rep_247,rep_248,rep_249,rep_250,rep_251,rep_252,rep_253,rep_254,rep_255,rep_256,rep_257,rep_258,rep_259,rep_260,rep_261,rep_262,rep_263,rep_264,rep_265,rep_266,rep_267,rep_268,rep_269,rep_270,rep_271,rep_272,rep_273,rep_274,rep_275,rep_276,rep_277,rep_278,rep_279,rep_280,rep_281,rep_282,rep_283,rep_284,rep_285,rep_286,rep_287,rep_288,rep_289,rep_290,rep_291,rep_292,rep_293,rep_294,rep_295,rep_296,rep_297,rep_298,rep_299,rep_300,rep_301,rep_302,rep_303,rep_304,rep_305,rep_306,rep_307,rep_308,rep_309,rep_310,rep_311,rep_312,rep_313,rep_314,rep_315,rep_316,rep_317,rep_318,rep_319,rep_320,rep_321,rep_322,rep_323,rep_324,rep_325,rep_326,rep_327,rep_328,rep_329,rep_330,rep_331,rep_332,rep_333,rep_334,rep_335,rep_336,rep_337,rep_338,rep_339,rep_340,rep_341,rep_342,rep_343,rep_344,rep_345,rep_346,rep_347,rep_348,rep_349,rep_350,rep_351,rep_352,rep_353,rep_354,rep_355,rep_356,rep_357,rep_358,rep_359,rep_360,rep_361,rep_362,rep_363,rep_364,rep_365,rep_366,rep_367,rep_368,rep_369,rep_370,rep_371,rep_372,rep_373,rep_374,rep_375,rep_376,rep_377,rep_378,rep_379,rep_380,rep_381,rep_382,rep_383,rep_384,rep_385,rep_386,rep_387,rep_388,rep_389,rep_390,rep_391,rep_392,rep_393,rep_394,rep_395,rep_396,rep_397,rep_398,rep_399,rep_400,rep_401,rep_402,rep_403,rep_404,rep_405,rep_406,rep_407,rep_408,rep_409,rep_410,rep_411,rep_412,rep_413,rep_414,rep_415,rep_416,rep_417,rep_418,rep_419,rep_420,rep_421,rep_422,rep_423,rep_424,rep_425,rep_426,rep_427,rep_428,rep_429,rep_430,rep_431,rep_432,rep_433,rep_434,rep_435,rep_436,rep_437,rep_438,rep_439,rep_440,rep_441,rep_442,rep_443,rep_444,rep_445,rep_446,rep_447,rep_448,rep_449,rep_450,rep_451,rep_452,rep_453,rep_454,rep_455,rep_456,rep_457,rep_458,rep_459,rep_460,rep_461,rep_462,rep_463,rep_464,rep_465,rep_466,rep_467,rep_468,rep_469,rep_470,rep_471,rep_472,rep_473,rep_474,rep_475,rep_476,rep_477,rep_478,rep_479,rep_480,rep_481,rep_482,rep_483,rep_484,rep_485,rep_486,rep_487,rep_488,rep_489,rep_490,rep_491,rep_492,rep_493,rep_494,rep_495,rep_496,rep_497,rep_498,rep_499
0,0.31014367658323955,0.30586418995030773,0.2908891324185942,0.2991016007892533,0.2986536883135985,0.31091502304697555,0.33417395313895903,0.2967565669972114,0.31003207993732695,0.31354827966906484,0.31071146403131567,0.33764327310147413,0.3076147626587829,0.30027908572853235,0.3116564476140243,0.3100226405785783,0.29090045307948903,0.2954035199148515,0.30028681545309194,0.2857760455112553,0.3050892747929711,0.2923967552114587,0.2963255103861706,0.29700978162471287,0.2922468669288894,0.31399228068136875,0.2979599023372551,0.3185068116951515,0.31450608417147197,0.30732597344362284,0.3295900022310194,0.29266619268154737,0.3018142247197586,0.2991563873875207,0.3163993092721483,0.3302021042011362,0.2894073253727261,0.3136269907766468,0.30762664064490347,0.3212944891212465,0.2997458618324983,0.3175592771170598,0.29737015144210266,0.3131985708865563,0.2876817256537124,0.3168348720629805,0.3332086302347794,0.3135807562206699,0.2967595723643023,0.29312094671148864,0.2969451932443081,0.30192839738233956,0.324228421942084,0.2932539824066457,0.30437169971495787,0.3051049406093019,0.3112139629891833,0.2982748799069257,0.3155041706552447,0.3012223299896106,0.2934690628159341,0.2983158261017692,0.2899004360077495,0.31266689379087953,0.30690115126880657,0.3029516249981854,0.306692724838513,0.3082344304814421,0.29068009102998016,0.3093917508720658,0.29438018863625737,0.3248038811342856,0.30371937960134426,0.2987069250430295,0.3033595267609852,0.30357630346616604,0.2837342297099518,0.3013529808879264,0.3176915727776521,0.2919874525974825,0.32414555632268904,0.30284358335582634,0.3139251322987657,0.29824102710632333,0.30136887994133327,0.318263744532432,0.2921440972361811,0.3297944830873555,0.2930865046166804,0.28441706486022794,0.30099962278453224,0.30631481588211784,0.2996556571171748,0.30041995250485237,0.2915291598272334,0.310720371580978,0.2844463574587432,0.2893548163950489,0.2967171212813396,0.29635311113758134,0.3159934806921996,0.29469650979850953,0.29024721385251867,0.3196557445831387,0.29492564503534374,0.28856032541525234,0.30986823068609515,0.3024856764314857,0.34392710832932955,0.3060575993967329,0.3100840224960373,0.3266076768165239,0.29796205453133207,0.3089006496208995,0.3003626753480976,0.30342979055984554,0.3162678269190352,0.299158272044863,0.3067324582141461,0.31552722082231005,0.2959516236824969,0.296833332190638,0.31432475028938833,0.2985175520892524,0.3055338122948951,0.30601441067027946,0.3059698466320137,0.29266400307561297,0.30409543302861075,0.3103208479167243,0.2956843361807948,0.296005237960236,0.2818324023661102,0.316167316911819,0.28814071144332565,0.29467920999183006,0.28679958477705997,0.3200928516007177,0.297696531934561,0.29209667344304485,0.3190989153933035,0.2960574400498996,0.3093359999851466,0.31454053325760134,0.30265565446588494,0.2921916653256055,0.30038573623974224,0.2901035459721045,0.3083207187051921,0.3019869604883424,0.29782437452947935,0.30865682753221735,0.31231503975492925,0.32256977587818075,0.28931918004664825,0.3014297239316293,0.2946113764658799,0.30220615735381706,0.32671701619531657,0.29468321067445397,0.28819056467811693,0.31773052599852536,0.28708145756870906,0.34304820879550196,0.3024317660235719,0.2981155791410638,0.2894911344948217,0.3252500112154501,0.3057066371599198,0.2916230367523595,0.33891612768265306,0.2917841287311612,0.3084747510646667,0.31325212466616364,0.3308151765179099,0.2992184686900786,0.29470447213439294,0.2960554837302324,0.313065698869433,0.3006726130862014,0.2971693426338137,0.3014471954896401,0.2993124382680025,0.32008208275168537,0.2983427701837395,0.3124186834458662,0.29099203294105547,0.31011189102342096,0.3182880902338094,0.3006872304877002,0.30559023454556145,0.2886557969575604,0.30549333535706735,0.3361329839481352,0.3482536513470506,0.31989949526776623,0.3005971841835907,0.3088814395523178,0.2961463589493372,0.29610494884815325,0.30933779704862374,0.300557946179974,0.3151783592510491,0.30216814627720484,0.2944513078188768,0.29027683418053285,0.29763635969810165,0.2887948752888329,0.2951361203628753,0.3056065936872502,0.29486575726989395,0.28692716516595146,0.313399640537313,0.3155962104727557,0.31121816722434215,0.3015408598985711,0.29896561141790573,0.30853300151783686,0.2927090310168793,0.2855731619668123,0.3042605816678437,0.2931863502711567,0.3097555168902061,0.2987433083102435,0.3084484841596534,0.3243588023341084,0.30524377097620253,0.29923517319383863,0.2894017378523307,0.2930122779387071,0.2990689890138168,0.33259013977043883,0.2968489506980339,0.3352342294227173,0.2928025729985801,0.28828360607596404,0.2955537665743696,0.30555862462678157,0.30480265284102426,0.29723925323510747,0.29622330764794735,0.30152689196703736,0.3246932995557222,0.29420458036154756,0.33977443864995066,0.29124796743963666,0.3091153183144649,0.3346547157689399,0.30839656946818006,0.29043815380516247,0.29897458467388677,0.31743609334814443,0.3342803511703814,0.2878964228980166,0.3189281245360934,0.28939712096703796,0.3402704460525273,0.28515270535218595,0.2969426525219625,0.29187822252658935,0.31119642416497745,0.2935850587406043,0.31503858446212996,0.2997892946610261,0.29393600163937494,0.3046238745954042,0.28172852590734354,0.30513941858713006,0.34413689009790394,0.3022930553843833,0.29412199615091184,0.3071954062029991,0.3090918430921139,0.29075251931970053,0.3151313859800817,0.296627837982809,0.29991211184590927,0.3065190729268905,0.28802976583609585,0.2908197648836845,0.305426610047046,0.29470684526086005,0.29416384303653503,0.30751846866092486,0.3085031436813058,0.30081449706886054,0.3429519309537751,0.3152076783659187,0.302039098145623,0.29614335678734377,0.3026107953958907,0.3048061616891206,0.3062552532074294,0.3031257945095811,0.3017480864539557,0.3099856877255832,0.2941590845274717,0.3106006138105393,0.30184873048626415,0.3017158428813775,0.3048212468962649,0.30586367659336544,0.28824930825064243,0.30958583567349807,0.2949211256744032,0.29215582890182434,0.29365261450288976,0.2982497356217789,0.32248264000393767,0.2916756736439387,0.295352660622991,0.2980991828274857,0.31069949212640335,0.3379706012282782,0.318041313207274,0.31630560538553476,0.31954558507961445,0.29098283981538864,0.292103184584352,0.30480112104080004,0.32121630117009464,0.293298404122229,0.30131346021418676,0.2933371446769405,0.34525830326878293,0.2947018511910282,0.2971354091393662,0.3106329504507796,0.30803508594965245,0.32034378209384956,0.31702889196118134,0.3015165031188722,0.31303622738474945,0.30263940343960544,0.3152249588221043,0.3238211644186155,0.3031250699307134,0.32598645394282016,0.2970420088949601,0.3525857851754488,0.30230332822065675,0.3025172908109137,0.3087037093734145,0.2988386210722529,0.30746423607783135,0.3002249451460611,0.31390364510319674,0.3140301019605308,0.3050686739498841,0.3194751019244335,0.29728797235998283,0.3106530473600204,0.2985717619100806,0.2945623282874975,0.3000391925907214,0.3102666877399799,0.33266083759394227,0.3059711166895497,0.2904769836959411,0.29085266842651036,0.3315448398483148,0.3276336010495701,0.28878426125209,0.29802671873848574,0.29593933551121776,0.2946907121758767,0.30856344293092486,0.3092511654767937,0.3096619927869206,0.30488068327131407,0.31276497451936575,0.289337318127035,0.3109731115103008,0.3168949001520345,0.29965605638722753,0.28902375236883604,0.30100970655924203,0.29994059310134297,0.3064244871704731,0.3193081658803837,0.3616667738675771,0.30944695665413346,0.29060910405849283,0.30904045133888147,0.31586612252581403,0.3047658222350619,0.33910553753507905,0.2934867214243188,0.30526744440542253,0.289160600712989,0.30110207061082356,0.31279030855288004,0.33041570278806576,0.3146374033486018,0.29483631745421324,0.29023034173416623,0.30697075783527816,0.2938859591959683,0.30250843174653813,0.29907758390700884,0.3313432487675797,0.31098655183258705,0.2899333492943339,0.3051225947744728,0.30026986952047935,0.2944743416299806,0.2834828495774081,0.29975896016695447,0.30781396598084615,0.28913582751567496,0.30506423998265075,0.32243119981840856,0.29107842659785443,0.2925476237069533,0.28651641204841305,0.30342926691848515,0.295526093409466,0.296668852637727,0.31266667880210086,0.29825826941937045,0.31243430448436793,0.2988403498833191,0.3053432008114635,0.3492292340710422,0.29241060100821914,0.31776131512131767,0.30609366608657823,0.28694765710812786,0.2932825735618704,0.34524049443425037,0.3210618929437638,0.32310122434919164,0.29343227232613006,0.3072693654477777,0.29319955081880006,0.312158431893662,0.2981983032111683,0.29648192200486695,0.3241863147647745,0.3093323065153019,0.30357195773629625,0.38106490184392067,0.3166478343693405,0.3006481683057707,0.3041842795785424,0.32089823947066975,0.3046357559908661,0.3151345017265089,0.3116787666342918,0.3096041023363464,0.3056068510699728,0.33802603651974106,0.31343961379855934,0.3103573092975254,0.2969541369802717,0.3024678736364136,0.2949725397953839,0.29906982977165425,0.3231335961229089,0.3107327577321294,0.29697893438824147,0.29468332898846616,0.29337115440072115,0.3140099799148381,0.3118277742821128,0.303871819379758,0.31875616553704056,0.302682393980829,0.29089717849678365,0.29938897027579375,0.29599449918053183,0.2790352441698222,0.3366860626892382,0.30138614268144515,0.29733416131287277,0.3049126267376946,0.287489792812568,0.3192492839870051,0.2910839796601393,0.300276328131574,0.30870371513322337,0.29303547201755487,0.3207100047148209,0.28825479648961516,0.3196799756645147,0.30794600208359746,0.31852401652200213,0.28618819436263926,0.2962059725705076,0.32428700794398047,0.30815171663003527,0.30260050272926564,0.32791231721755165,0.29400262150782785,0.31730702322049664,0.31333304365291104,0.33265309661860754,0.29727924480619466,0.33589594966947295,0.2897756730839412
1,0.2873836446309301,0.2989916621076411,0.3026142299602342,0.3142338569350738,0.3090052572214484,0.30049444884848997,0.3087110700301007,0.299165779539983,0.31852541511084814,0.32729029319000347,0.3241974077687343,0.3462139326358794,0.2973642844675099,0.3110108655286931,0.30073788369348387,0.2886841597785818,0.3063359508621911,0.295529378932731,0.2934725310055099,0.33306646212263036,0.31481937209116556,0.29651229935917534,0.3338194960640316,0.32497689662250584,0.30157931368745605,0.2997513594909434,0.33955988614359955,0.294988545449011,0.29280536089229753,0.30152230891510395,0.29882656338865726,0.30204466519459,0.3070378467735771,0.29514754292813933,0.2979752477808845,0.29762206921706263,0.2838479170354614,0.3200483611903208,0.29610078680386603,0.2943686583845726,0.2828119919452693,0.2945803158965641,0.3265025198229693,0.2921958303464974,0.2891178621536435,0.29786645420023566,0.2922206031814865,0.309518606818937,0.3027463063795344,0.29711680687734393,0.2845498728330286,0.30443979222345285,0.3023972908724509,0.2889234898688239,0.3142358349924193,0.2915088707582022,0.294566131235403,0.30177796104178317,0.3192771996351849,0.3168447612264722,0.3002815572091059,0.32226420721623217,0.34194380919705586,0.28799296531359975,0.3238167796935684,0.2986324956039159,0.31806003824557766,0.2998118171487844,0.3061625499317412,0.33920114691227793,0.3068859062082284,0.28806404313077966,0.29850559210099503,0.29498931515594934,0.3041287961393398,0.29947457835392666,0.2920871721775329,0.3076719934358786,0.29602626779939956,0.299768369265053,0.30388985088983805,0.2971959703398017,0.32429395195731914,0.3317316625294155,0.3204029743208266,0.29384012316721286,0.2910027399002458,0.30396564910529567,0.31471033944891,0.29632034736693474,0.2996472883011197,0.2977925258020316,0.31759225794882123,0.29212494912369474,0.30858651899855577,0.29441948566340626,0.30317006439491306,0.295038769626214,0.3172827989179213,0.33152394124433165,0.304939182722985,0.3123036482319846,0.3020760184834416,0.28845345596240735,0.3033159997856089,0.30719966454687614,0.29942533773918995,0.30412957198557616,0.34724738342532513,0.30851647854523345,0.3118301392197726,0.3135408639254143,0.29896302263657315,0.3163698777451097,0.3437200575676646,0.3022235478575631,0.3883812318509837,0.299087482075387,0.30277315029876445,0.290245468098263,0.30670245503155746,0.29533745380418264,0.2967258781567129,0.33024178688986283,0.29798040683003746,0.29356804531610664,0.28546695540992445,0.30665128580912504,0.2900246763429793,0.2924199364747077,0.321645736668397,0.28917460796607697,0.30904239007675105,0.3278301658828749,0.3139814384623767,0.30686463969797556,0.2817279310807409,0.34817695687179334,0.28907970671723576,0.2975964843919287,0.29041563363436024,0.2966774825407819,0.3060877837815671,0.3063959952787294,0.3006749129842989,0.2952651144821473,0.29620669901422453,0.31602294695761823,0.29775756471205417,0.3157627220932888,0.29524049258911583,0.3051835625961622,0.3250801889584535,0.2974724227557973,0.3048767731220031,0.31704421789567416,0.29476631761007976,0.31219192960741465,0.32023704602880093,0.2954752360697795,0.30017385968099064,0.3307392258828973,0.3090903559716638,0.2998814836702842,0.2964959212245962,0.3226507606240013,0.29923613573660085,0.30270040160005685,0.2988677146239018,0.32117818267263315,0.312971539758165,0.30042999646273516,0.3297948364900376,0.3018149445354342,0.29531751669905476,0.29492841450648194,0.2969256288176523,0.2938012541339356,0.2954013317262168,0.2960943611870676,0.2926786682572621,0.3091457717896108,0.3037755306863531,0.31298469084126185,0.3013071006630582,0.29870525988555896,0.30657629717198726,0.2907345577208258,0.3330584753807274,0.3042497569123299,0.32319443380171875,0.298229793320079,0.30376566992426257,0.3354781508989354,0.3528081525350916,0.33380745284715874,0.3024169085053879,0.30666706772041147,0.29580087521517096,0.3055270829306672,0.3183503009393941,0.29273848513337175,0.2941845126427156,0.32527344045276074,0.303161635534856,0.3288109214046354,0.30622968644405735,0.28644906266338144,0.30687120194387874,0.3105263288099971,0.29817076014578153,0.30824190183570027,0.33594380883294916,0.3431230454660094,0.314099992415055,0.2930521792062629,0.29470392880693513,0.3412479596669252,0.2936487109789219,0.3290113670241199,0.32617400782224404,0.3177864402000853,0.3058050958241463,0.3086823094855412,0.3008438989121838,0.3018387155204172,0.28699193373248316,0.3137960464087784,0.2967344826832453,0.29789841507708453,0.305661348018664,0.302127807975467,0.3075817522618724,0.3091598148530786,0.29902801403112134,0.30811915028041537,0.2844716988655177,0.2958206778638889,0.29334249395719997,0.29625018929339825,0.2969950247065444,0.3127807044753932,0.34087321071992177,0.3117687619772408,0.2909156596101946,0.2935548644137316,0.3320573498066533,0.31485872636332235,0.30007128572437763,0.2894032859358024,0.30872093653034066,0.2898640391010495,0.33028782906310117,0.2938041986693411,0.3014874863743391,0.29202284710227294,0.2954551562751718,0.29040821585722654,0.2955763087773384,0.2988931309554917,0.308212487410528,0.28983775266610096,0.31126970913021756,0.2910000162420924,0.29870148956629033,0.30223215111382307,0.30236563046214177,0.2953988328131584,0.3606349832507195,0.28175063662283695,0.3074069911164718,0.303657214628037,0.29095934984128746,0.2983037647792841,0.30047798742385584,0.31884567997572194,0.30793375922180316,0.31437560466103837,0.29827772630494187,0.31111628385196954,0.30172027303580856,0.30827298504548667,0.2990021890558677,0.29493432022749766,0.30719959887528153,0.30060901673622803,0.3050556575428428,0.30807623149325286,0.31815128978704155,0.30616626004181197,0.2997019507917169,0.326314304315192,0.29511970171852137,0.3127198598383289,0.29818639402294356,0.303806438893941,0.31400440820178516,0.2888057155814455,0.3063636485931324,0.2906790384020393,0.2984082884814995,0.315878901339922,0.2890703836973926,0.29958986169139845,0.3115274747272871,0.3102387461268638,0.2980096910055565,0.2863774764945369,0.2954920205950432,0.31018533280795424,0.28870348722671796,0.30064491038271973,0.30161728440543734,0.33018639792446425,0.2962176574713704,0.32137208215322843,0.29940878583623437,0.3063847327913961,0.3071720559037929,0.30072375993444544,0.3386331463060625,0.32258044024325633,0.3013520261739415,0.30094304208922024,0.31364872598293425,0.29831508387368355,0.3024364981334696,0.2924189450919911,0.29785986496236705,0.29599839046778,0.298172563880056,0.3008468462795006,0.2868780228452243,0.2987698075029894,0.3059056778398554,0.30375662546729326,0.3056836928652838,0.31981748757762374,0.30139568266546524,0.3607695840481359,0.3060535988279786,0.32170639348469743,0.2980345839783128,0.30599698107195566,0.30253627135051075,0.30094322735067636,0.29685954002979736,0.29799159374033285,0.3212047658984361,0.29704669884904333,0.35815782050967104,0.30863002948780505,0.30023764369913175,0.2977606515380759,0.30938217603827745,0.295854046489037,0.30621442152486755,0.2909843051899984,0.3038131143053984,0.29074105295843805,0.3353297895400209,0.3009394633194228,0.31197786804089095,0.30181895373217404,0.30091409989760504,0.3005950061093584,0.3160452862150995,0.30356964753216353,0.32261662050307405,0.3041491534388993,0.3020098574797997,0.3044443652537444,0.30130857806487715,0.3047520318799636,0.3151800640472358,0.31705404027713435,0.34400888803898455,0.30687283605997095,0.29528733000054047,0.31379491228728645,0.31476946436732417,0.3049712360491522,0.3178255117742919,0.29767962405367543,0.31010460617083696,0.28958439643053036,0.29987156152927347,0.3011020859578687,0.31926443997730436,0.3141208889364127,0.32345039635677086,0.30339511395260355,0.3191894627228005,0.31599286034096724,0.28765455516723626,0.3169316446966042,0.3099519986662655,0.30528773208385307,0.2966274035678612,0.28718154993028333,0.3043624156250363,0.2943207620111413,0.3081688330614298,0.32661730858843496,0.29293684717520974,0.2917879306242631,0.29818176949484165,0.30141099777399133,0.2963698126832708,0.29617272442705533,0.2951134982217035,0.2888667319642854,0.29296211912760806,0.2999546717142176,0.29613248266386927,0.30761651152191516,0.2970872142315067,0.30708477971150006,0.2954548174781447,0.3106407960085036,0.292064365951496,0.31459064149675114,0.33071972692072393,0.2895588839174232,0.33140061282788374,0.3018261722688397,0.2954053461669933,0.2960455060769785,0.28921906597906105,0.29237730000693196,0.3016328851176694,0.30476319521428075,0.3170193829785369,0.293380694102448,0.30063544985308366,0.2857217780094745,0.29624701135603704,0.3114719821797413,0.2968874703675715,0.31548930518972856,0.2936902980380881,0.32798822560902896,0.3014428175639103,0.2920967270139538,0.2999500067656557,0.36176688892118924,0.30877061683535956,0.32040133892617495,0.2993458381383538,0.31283912749736537,0.3010455244139368,0.2862894884222199,0.3276788864475858,0.310285424207677,0.3237398442929092,0.3198969931356054,0.2981407753990167,0.28922002456401014,0.29616961922938445,0.29961708100582385,0.3025855482913158,0.30075378805803166,0.2933091026066065,0.29856708297220563,0.31356202878956235,0.32245455457439637,0.29959098500262593,0.3161029409348144,0.29859079976155856,0.30415996123551825,0.29349186534226523,0.30267078855171603,0.30319488794152616,0.32986184503268656,0.2908371307856127,0.3130756811907317,0.2921916032254227,0.2970625648065065,0.3299437347235492,0.29682038449384573,0.2976922499734989,0.3002109803769747,0.29479009684718654,0.3064068148047622,0.3084035310384269,0.33464170933475496,0.3010693445201898,0.30221373779780003,0.3172824574826567,0.3069044210718039,0.29708768716599804,0.3080510573564439,0.29754229902264284,0.2903129796040132,0.32795051569393474,0.29578474494983753,0.33127032473113266,0.29001311931492607,0.30802972050534777,0.29512380419442874
2,0.2915392639067948,0.29119883904098326,0.29767780037917724,0.3115162399122495,0.28089229594822585,0.29274508963906687,0.29368879994641073,0.31346235338394035,0.29961183658477025,0.32069937211418154,0.29682309348657776,0.33103488065314735,0.3274381268190313,0.31615590720637277,0.3149471644101698,0.29968636086661526,0.3132511600075316,0.29995711943482,0.30022454562122053,0.3217474952064746,0.3129675073591157,0.29944987592088895,0.32287372243913515,0.32592539565098755,0.3005412446171406,0.2913819608260255,0.30521599663980215,0.3147354477992022,0.30477342226121323,0.3270859075571612,0.3209381254398245,0.3312859541735207,0.30662666813579703,0.3166984876241296,0.33201106849219375,0.2953672776390782,0.32150127005638485,0.3027184079502169,0.29932661181781695,0.296400097161143,0.29678550922116337,0.29318033705689545,0.30645459500986283,0.2941490214567377,0.3109564225629424,0.29053740553397756,0.31822879106011,0.3039915729000711,0.28950429642251707,0.29060442522716345,0.2872702391388045,0.2902776581779664,0.3089157013473055,0.29540191281550937,0.3107132510584862,0.30089168638901825,0.30308705629223565,0.30142833211548065,0.31538834293051815,0.31034950207755524,0.2829616380839603,0.32088922729768454,0.29885533485719695,0.3077690848357518,0.33872639757897555,0.3089293427622044,0.3246936485135243,0.32962239366414525,0.28503197958961146,0.32448907765789564,0.3123559829397531,0.29213188827443004,0.29232233674784824,0.3104886148489868,0.2986952657147584,0.306739365140526,0.3098021784985111,0.30572921468171416,0.34182983784326615,0.29190908461934917,0.31327364503257316,0.29244003009634745,0.29260786063155264,0.29390932065437775,0.31018767375990763,0.30708870679061034,0.31689329635706903,0.310875922448195,0.3073883743876117,0.29342010390403805,0.299628170886298,0.29420252251473344,0.3007829974364834,0.2926405667999593,0.2951566012441956,0.30434779705642406,0.30022143530110645,0.33043084111072735,0.2943233162273354,0.28970484905668153,0.3341812926962939,0.31192014107444244,0.3494444950918377,0.3081267815281806,0.30312242576598963,0.2984516703424456,0.30126543287711666,0.2977627725470223,0.30989639878339836,0.3082454597555706,0.3170570274922139,0.30168982315744686,0.29889422474434124,0.29229784239766166,0.2931970611479118,0.3049143736225101,0.35867409416765417,0.3174088405486112,0.308389899964543,0.300149434712958,0.2931934814651137,0.3156860616767615,0.29411192458022173,0.30338497176928975,0.310422066242728,0.30179628796400515,0.3106101960720989,0.31883062699459036,0.29399833542203907,0.2899171864421194,0.3128835021445492,0.3192365820799635,0.30884668443983093,0.30132178999330644,0.2933416830487482,0.30547916408987846,0.31004413520031504,0.35944542892259423,0.28725843103270476,0.28764576200457276,0.2969704866116268,0.2896526889584116,0.3077678757355251,0.31810272940910034,0.3081791498886251,0.30915727795836007,0.3122198258027829,0.3143359799321265,0.29259041799750307,0.30177259495064235,0.3008986620801385,0.3306508372571744,0.29940156056659656,0.3063476420766651,0.2910616674966363,0.3140476830836175,0.30778407592799367,0.30339560572452345,0.29716923662727057,0.29742761959884784,0.3003153441220489,0.3003059532820158,0.30917107640160113,0.3071331129383072,0.29776645961525616,0.29679229345029395,0.3027813245235271,0.3081634159192208,0.3122963368616726,0.31018350122018706,0.30462782822326334,0.3078280259299822,0.29573090690864895,0.29938249698901165,0.28619862012497943,0.30690268454977504,0.3062805941968077,0.2859300978940131,0.31097331575232984,0.3547883498385784,0.3047870439537495,0.30781951713158984,0.302239244603965,0.295747805730295,0.30256295472128014,0.28793852921449825,0.2824299128215253,0.34286192261908527,0.30020447052048777,0.29505656272784136,0.30576936601425897,0.30479716391889156,0.2942360543125876,0.2930522463145548,0.30613941384172727,0.331499452694145,0.3273356633466597,0.30058976837430246,0.29613318616994855,0.2881538240765065,0.32724814469745833,0.30365743223963804,0.31428625470205807,0.3081682040996885,0.2860496556659246,0.3136623382532814,0.30536753574640113,0.2889556223947855,0.31264628896708646,0.31053138698514066,0.29689267493388477,0.29870175266927895,0.3093578201045546,0.2965533798966342,0.33766129925262195,0.28746424009133675,0.3124367284961616,0.319750658009324,0.2957280427896312,0.31362354220553856,0.29959413843208516,0.2920682488271211,0.2964353795343216,0.31715890668399044,0.32445853675847225,0.29838144350056817,0.29693323842016084,0.3108549125980665,0.3079067888613669,0.3041094811770594,0.29441440418402365,0.30221857998246515,0.2900896364408526,0.2922291544208534,0.3049614730556072,0.28782989575857776,0.2911339579197615,0.3297084923433805,0.28739227139927576,0.31038885771018015,0.29280871874255193,0.2973534358699341,0.29177061379959457,0.2945742190318471,0.2925243564346957,0.29727950670753794,0.3039987823002547,0.2918996619794667,0.309484549969481,0.3440095691775556,0.34962453154910234,0.2977922522991107,0.3093002027434129,0.28793916312239387,0.3018711631749146,0.2917922677006479,0.3014584473214304,0.28762296820820554,0.2881821097428241,0.33985830959536173,0.3430396599559672,0.2955255982554058,0.29725916677038866,0.31577631111004817,0.3010135402863624,0.32095944406304044,0.30408978333706616,0.3054195891796219,0.3128134236612127,0.2860437536143709,0.33676716819703256,0.2933230570822781,0.30183875092758766,0.3082922854722195,0.3180677835180225,0.29364498911582637,0.3144361129423817,0.29576606153656887,0.3177949583120831,0.3246723171288849,0.30796741925835447,0.3020896933204479,0.30022185437248405,0.297860966802927,0.3013416543772442,0.29499225977755017,0.3076039308246671,0.30263810612279335,0.299174326474867,0.31087892259130134,0.3246168527046265,0.3229967604575304,0.31243818962622616,0.30355230324135996,0.29892098474067474,0.29875704521963453,0.3368454752353166,0.3073577778629285,0.30889419252048084,0.30932903457687955,0.2893828777013597,0.3181411725107035,0.28677205788707766,0.32101481531531706,0.2983987839208585,0.2980323776471046,0.30000272286564644,0.2961321845940029,0.3068276431958534,0.3060784521836965,0.2972384833717082,0.29807391943980716,0.29245104743325495,0.30715011662860037,0.29864844108605076,0.30593010008451804,0.33448616185727226,0.31240108081923446,0.32094969718909916,0.3377361497396808,0.32870161646120855,0.301616241655924,0.3154654395605641,0.30207714446086636,0.31900747212204106,0.3020029438271061,0.3227606042679912,0.2983972082174097,0.28894395860225863,0.2953966131739668,0.3022456503681802,0.3150027821636735,0.28978330593092827,0.29516142276431623,0.29439292141488654,0.29841177797239704,0.2912906498874296,0.3106406907949932,0.29177235469091706,0.3434711277421586,0.2909276047330934,0.31728092152250537,0.2910173411738304,0.2838956677017065,0.3012989329769659,0.30654012318291846,0.3088847799132101,0.3099612508367428,0.3022525825506987,0.3229377938096765,0.296598381816015,0.29653824722106814,0.3044255490278268,0.3169946646318782,0.3107067321053018,0.32647536451842774,0.29116103312175795,0.3193968141866076,0.3112715051093103,0.29897296079535784,0.31782971363568674,0.3211550793155121,0.30470835083793407,0.3085048090388653,0.3397815519507149,0.2976669017294028,0.31249286963635364,0.29193162269176576,0.31234834805891426,0.31976857974223305,0.311723241012878,0.3131829818389739,0.3090202759225228,0.2981513717863861,0.2868925096378633,0.29033406178911514,0.34420997852149016,0.3081027045272956,0.3488712009322634,0.29436684829880866,0.31253338996744096,0.3137398430762023,0.30524505747489616,0.29660365292966134,0.3018179595827171,0.2947566660829447,0.29615745786079384,0.2980664474370554,0.3051451013375518,0.2920221663914866,0.36728191393020987,0.3035772908871571,0.30460123774116926,0.29496320091147393,0.30126025304040166,0.3051372525255248,0.29758779076827235,0.3088241681041845,0.2887778308815506,0.30433701383448913,0.30554118371694,0.3131481597734735,0.2961273279812077,0.3048666222497756,0.31116667355916977,0.2984595174421951,0.2969652368393753,0.3044913565532624,0.2983968327153098,0.2908186619642158,0.2917981741521335,0.3017483322144284,0.2921822517256605,0.31555432900865094,0.28787075078667274,0.30541027212894245,0.2893756144405601,0.29398836720365923,0.28378765426526026,0.3047882854171317,0.2950331678685193,0.31621961822365796,0.35522821338911637,0.3123398193573287,0.30370066993885647,0.3404558267250112,0.2966712692109497,0.29242467074479883,0.3058491621480449,0.311806822510765,0.3058392276997991,0.30847031551059995,0.3210991661609529,0.2918195791680743,0.29656058148586384,0.2938978358127441,0.2943780717596742,0.2931804639481467,0.28913536316948474,0.3215892859109079,0.29628726479959094,0.31981779914021424,0.2885612871226885,0.29438628653290666,0.2916265212725021,0.3045598077089496,0.28847132975482453,0.32128838670962007,0.3028353733427692,0.2925405337325992,0.30105015749859804,0.30299607333591005,0.30060135712211244,0.29253278811470607,0.2889543881436445,0.30593416242874205,0.29003647535542,0.2966650664840742,0.3435936916574963,0.31511016246782997,0.3151175405813741,0.29834779477800716,0.30974501392937354,0.296845543503399,0.32056236285878187,0.31504250173891546,0.3129806644447105,0.2983521065846029,0.2910203458021792,0.32909962759775263,0.30097880984916126,0.3112015574048056,0.3152933553330787,0.29552240795016205,0.297933639981392,0.2878328734517769,0.320043319650475,0.2893665897037257,0.3014599164588996,0.3157492193805761,0.29376011226241205,0.29382659973941755,0.2889768750611119,0.30796185311338325,0.3227077502508246,0.2955336020745251,0.32918554105533954,0.2951267397763548,0.2994490432321816,0.3061969161769444,0.3059165237886508,0.28879346030991915,0.3105153222555809,0.29872542666126717,0.3049735296402394,0.30373512231214483,0.29501270415450287,0.29399256305503885,0.32559672889747815,0.32465859986491247
3,0.29597640457035157,0.2939440525256843,0.3218692232319133,0.30461057006900305,0.2987129872071929,0.3041489493658062,0.32280330576201416,0.30584969994608574,0.30469256089142044,0.3055112846719875,0.29518070946000463,0.3403487703854697,0.3068096158256284,0.3014156990723155,0.2950293775861024,0.3038286016436018,0.3328823335273932,0.30274312133598086,0.31501200480063823,0.30581523596030274,0.3130288094188371,0.30111149634157075,0.3339004053041378,0.3160970206365449,0.29034528738523946,0.30581811947823845,0.3238563200200254,0.3121175859630489,0.3033634652307628,0.3043675626984893,0.32708404037866956,0.28535921336217973,0.2924971038842162,0.3052550727773171,0.3721763889768883,0.2973184609528257,0.3073143725535996,0.3136780941121421,0.2904368315127926,0.3039045604440024,0.31401913098060613,0.29789997145839786,0.3081706822350342,0.30407316436501663,0.29921440663409604,0.2901304441183279,0.3032988132260138,0.2906303104943393,0.31888641310248556,0.3183891449036783,0.29891107932599364,0.30900769746933743,0.3006200532637995,0.29461291136857237,0.3045707747184908,0.3035220347465716,0.311192215667473,0.3294680117552708,0.3182889311140089,0.32043642804901706,0.28774799330791706,0.3340608131080022,0.31119768248516577,0.30301388247426375,0.33690591170952844,0.2885679653542604,0.30362171563820917,0.2869619806246195,0.2962656063666521,0.28599557081431576,0.3142795817136431,0.3142589633105346,0.28612573314151046,0.2964125176019495,0.29080604416729827,0.3102687185362103,0.2878564422376252,0.3188510260687599,0.3024089264246316,0.294659847935803,0.29615248240790454,0.3195502699710292,0.30394498080617405,0.3209547688836528,0.2945575576347041,0.3063651867361977,0.3029130072476104,0.31545672724810697,0.30872988642265964,0.2940936890519862,0.30124496779658655,0.2894354223321844,0.3246176859586704,0.3028692742323428,0.3105923636508889,0.31341799178733876,0.3205415919925991,0.2913653624474323,0.30190712692633453,0.30061874478473766,0.32357228383991965,0.32626810569111825,0.29751937852096544,0.29605459590836636,0.3101829357797222,0.3113393372795366,0.31261303808217905,0.32245944855808634,0.3196563965808254,0.3009798832739618,0.33350762517177723,0.3001581175444846,0.3094722733864352,0.30677392819464805,0.30258690128343907,0.30325009375930456,0.31127913995120116,0.3221041879742154,0.3165327201617702,0.2913843176574126,0.306516141324097,0.3033914093599561,0.2938382791317925,0.3101294885708777,0.31680010769532563,0.32317592903846093,0.31318909865481903,0.30365872845455993,0.3405838248962264,0.2878340941101243,0.2860825175575291,0.29002887505981,0.2929415007113376,0.29741484245437405,0.32253480552310765,0.32414341016430226,0.30095364488058174,0.32513472457828646,0.2917806915677897,0.2952531572662467,0.3032759204041837,0.29150133443432047,0.3005076058985271,0.30333994098369793,0.304459819894755,0.3212772866228283,0.2937505253610465,0.3391177400024085,0.2893411704730252,0.3217826842750112,0.2970013384510991,0.30108369339201985,0.3072734336427166,0.2947468798643943,0.30756541713266217,0.2917073652066235,0.2993988184612445,0.3088574116871713,0.30748285840550416,0.2995847137347794,0.300942091678542,0.3039233117167081,0.2952837543896506,0.34676518878868723,0.3031631311574855,0.3043024881384659,0.30735518535398104,0.30925588341784943,0.31858699643726485,0.3005158993109459,0.30599289552303666,0.28878822115990876,0.28637595587822645,0.2922664571074403,0.2870691898481469,0.30021291299326935,0.3066604793683378,0.29695035016837806,0.29777872384225,0.29974495292103465,0.2859626272939031,0.30220135799616826,0.2962971437332583,0.2987934550150412,0.32279412008787683,0.29181960253186623,0.3088158951079884,0.33665924169477174,0.3093277097817528,0.28608322020008,0.30226398506266755,0.30434085097978886,0.2843458876045907,0.3502884872079379,0.3379747939836761,0.3126038391044732,0.2954022773099164,0.30387079785085536,0.3221389676485457,0.3098933368450899,0.3142374550738311,0.2907803613343791,0.29484077107877654,0.3124407292507884,0.2982383866107589,0.2982967821710383,0.3016089675042235,0.29049376007306776,0.31441638242791325,0.3060834659102606,0.304475862509889,0.31393552852127815,0.3100834264433856,0.29178314668948113,0.32465923052061924,0.3026434238704916,0.2960340013408654,0.29149562727301204,0.2853759562829987,0.2923776675313978,0.28945085113412783,0.2929713661777668,0.2864681444091717,0.2846768481736701,0.3590367376293691,0.30098311746210127,0.2889511439876423,0.3074059395812834,0.29949721328238377,0.29316841881348954,0.2877721196672404,0.3232993453484203,0.3099393493106387,0.3001525869568244,0.30564371968481596,0.29311485477944144,0.3289961702500105,0.3167673317590158,0.2932267490947343,0.3139374957464966,0.29541153221423644,0.29358758916940864,0.2940482839294772,0.2929492698116448,0.30552282275116543,0.28827032758692545,0.30360112229680003,0.3133810011008001,0.2996482969173214,0.2952664703775742,0.324520337050093,0.3584550579321516,0.33294058475972865,0.30318446671203236,0.29385529272969174,0.2951734208411775,0.30853490616681034,0.2938561831811803,0.3106860595709727,0.29568812770650343,0.2962705107756437,0.2991933176750831,0.29147984764750257,0.30422632404937755,0.3010133145619722,0.2998881600799436,0.31550121289638483,0.3151874354054175,0.2978837801733748,0.28938504555461453,0.29103501138977844,0.3065517365803508,0.2983019804119827,0.31789643407859625,0.35012724648643073,0.2874057293735143,0.3072387526706337,0.2969752304067314,0.2998247281023489,0.33236153981423444,0.2949780094644035,0.28991381914290326,0.3072031087891147,0.30257786732567615,0.30266873888340173,0.3268297995301007,0.2984502583356374,0.3178251812567968,0.28499446505144893,0.3068213105731935,0.3134224803621143,0.3090156584269656,0.29391633678176227,0.29182753876987105,0.30494642707070574,0.32023662377279327,0.31887794774136324,0.2852456155335612,0.3228828195239757,0.32060328859636034,0.3030082121711982,0.3198901826966788,0.29243961451545797,0.31105687212801164,0.307080200165151,0.3014631250462254,0.2906533087209348,0.31227076524234487,0.3008045667043993,0.34238088135986444,0.32287830300326886,0.2997810699651477,0.2938300994412639,0.30554478175649846,0.3186188541566353,0.30153257597496747,0.3001726455829997,0.31519310575717246,0.2947170870978611,0.30170103126920694,0.32197417548614826,0.3036344702867112,0.30342991844798023,0.29165784094033304,0.3144619498242941,0.30090471818004183,0.30383370914724395,0.3026198776838686,0.29584863496361624,0.3176777883217689,0.3009409300083705,0.3306261366123079,0.29399744573005326,0.3018065348318567,0.31103412909417555,0.2951056108450215,0.28651216331484297,0.3004082851458389,0.30264662641194184,0.3213811648443464,0.29155706376115953,0.3166851436538824,0.34748411076486707,0.29076512715948094,0.30106280287276577,0.315558975409905,0.2887695533136147,0.3031358177386954,0.29139328435078543,0.29465901144580414,0.29950464824276624,0.2972784756939386,0.3292475420317934,0.308094707049399,0.3185509246374341,0.34372048689539353,0.30725328744532554,0.31095497989666715,0.2996620998545518,0.3091458002711446,0.33131127349913186,0.3287150613160325,0.30564121365948754,0.3047690512619304,0.30542282821009803,0.2911379716835465,0.29955169324759456,0.3073387485493248,0.30398852940812127,0.29616911680662594,0.29129924532336315,0.2885173857496839,0.3197578689594449,0.3008442167155305,0.2869726143280885,0.2970828584416275,0.28567046066645424,0.30706329453578696,0.35588992379612644,0.3015530571399435,0.3310391562599171,0.30733564801563923,0.2988515469885678,0.29839893355921443,0.3329795985277185,0.3557007295713418,0.31380406142563577,0.2970476754290384,0.28860113891526884,0.2955764673307932,0.4179235385194174,0.3158951035312044,0.30420129006538155,0.31733565946073505,0.30721657036143774,0.29955739374995916,0.289129764049277,0.3065929772385648,0.29876190733168884,0.28866055332501905,0.32045509310459364,0.2880591182448108,0.3014662955259103,0.31962144270993453,0.3147882397507388,0.3076666987126121,0.3351867875610629,0.2931042593618977,0.3095269999624157,0.28827220809572607,0.31774620993089925,0.2940759007441739,0.29229343079021974,0.31464331692380987,0.2983690104986434,0.30522568630462665,0.2905378102374753,0.321966149657042,0.2941890730587469,0.2972349642324777,0.30637746244558856,0.31744183968155537,0.3007466314298732,0.2941206852557424,0.3031974501159986,0.31374202143765106,0.2996388685760375,0.30556167952576785,0.3087448613547181,0.34253267609458515,0.32222553655843733,0.31958330510076316,0.3094749729696299,0.34773879832112203,0.32007851960218303,0.288297419951994,0.29608135633879223,0.3165486176856541,0.306862828359139,0.3138301485112566,0.28502380129985705,0.3228506428378327,0.29552954696807726,0.2885839442637876,0.28581592626152896,0.29626427346677564,0.2901827013230795,0.28956850250355337,0.3185646792802533,0.29584481078447644,0.28878371726748425,0.3092374946355433,0.3070712726188672,0.29359202226820685,0.2984432389604698,0.3125564296132244,0.2885375077937567,0.28916297622621634,0.2995974044748896,0.33717444318756284,0.30299462062453497,0.2949362580461422,0.2864199656757571,0.3143857073615044,0.2857909029291301,0.3096057066540196,0.30569411676730585,0.3143620453649543,0.2894026332130216,0.31367186396314467,0.29741046971206325,0.2931043371040661,0.2986540274933831,0.30358837195210153,0.2984993395183809,0.3409499127731836,0.3121835398145267,0.3188760710139687,0.31397146875169957,0.2989981306806226,0.3069909671682395,0.2953004718552103,0.3040405841034538,0.31665191149037436,0.29626655778273386,0.29337505666336694,0.2997282966371131,0.32984627546810186,0.33147503020378283,0.2971964406181388,0.30980191550289105,0.2955379558042689,0.32113889942747453,0.3090884964549504,0.292907539993692,0.296329671106169,0.31052984260656674,0.3387981126365433,0.2933128725072186,0.29504851626882583
4,0.29862417598650753,0.31175464550209603,0.2986447077918231,0.31786079102938114,0.29060041720679974,0.30217544009951985,0.3069599678041645,0.32429688498941367,0.3045335888969856,0.31712611063400314,0.29970438121607146,0.3507104154364486,0.31210144342306556,0.3092348925859386,0.3046092415894167,0.2948007832058383,0.31292697460941965,0.3014661583544594,0.30563971326339506,0.323035650739484,0.31868679248540643,0.2937535507482749,0.29612854649459186,0.30435576084557614,0.29527243089103367,0.298044113118076,0.3257246347247507,0.30705961808792104,0.2889674591287231,0.30126300201261413,0.33006242105560657,0.29699022829835725,0.30305476609146853,0.3188182565953725,0.30106131007896747,0.3083739684275471,0.28625788373752875,0.29535407502753297,0.29370007644939194,0.2900451605196603,0.28901272596436933,0.2915273390895494,0.29482994820339403,0.3011397262765131,0.2987011082749242,0.32510553820136745,0.28973420752519324,0.30345516807577744,0.2969455333400216,0.2889241472839438,0.3005788114602133,0.2902221476211142,0.3178167171624671,0.30001048943720754,0.2928067198315882,0.30831157409542626,0.3116623226290125,0.29351226858799423,0.3027849832571863,0.31040776280207566,0.28973802656191866,0.3277204605558509,0.3069744211609481,0.28852385736166786,0.3059244428036562,0.30789358301949127,0.2974419454844901,0.30095610571062215,0.2935080309270379,0.2943405603469487,0.29454123406145066,0.29946460673875935,0.2970233653897633,0.3125863858902787,0.3041143424519871,0.2995493807529081,0.29407444307182995,0.2995377389191224,0.3160753631248944,0.31390887892514063,0.31277928523042753,0.3123465086570464,0.3291546272234869,0.31364182135426455,0.28924206308942924,0.2991785595186989,0.29242853079760617,0.3103294010268661,0.31478063184607974,0.2945382978291352,0.3127716225995797,0.2837688222459241,0.3373166295340132,0.2918243847948963,0.32419338781805285,0.2868058025775593,0.31732580527444043,0.3066283809236477,0.3100436218596575,0.29316340711392724,0.3389716706187425,0.31375643325107616,0.3129043694518985,0.31449448956208065,0.3241336600672213,0.2979393143642511,0.31292321319921934,0.3379602307686286,0.32274621418786076,0.2937083455862927,0.32615585340399783,0.3241891733136072,0.3004028869450356,0.3087586208226028,0.31989313650243245,0.3178284870002666,0.32885767457362414,0.2893847414663437,0.2997323182712468,0.29257849356110166,0.2945232400760921,0.29626439004455263,0.30108738186411677,0.29227193006652524,0.32273960792150147,0.289054393893363,0.3083702925199286,0.299464550618542,0.30128198494202735,0.29662925854005445,0.3082949722652881,0.30707981825055775,0.28974824872337024,0.29733467810037784,0.32360451450478256,0.30577959790908865,0.3275164973989383,0.31916690883749294,0.28232196577736546,0.2910541855420555,0.3129549371262995,0.29040872021492137,0.2934848267114981,0.3145818572384581,0.2861637405679673,0.30195736505035686,0.2891921238031121,0.3021844871209381,0.28740908891538536,0.3039026211144104,0.2921773595000333,0.29490992221869705,0.31767005187860897,0.3069343400218784,0.29835833637926756,0.3036381021101043,0.3313724300097809,0.3027300698642806,0.305923323995994,0.32533534707190237,0.3036836600407911,0.2981070013239976,0.29414937875146696,0.3043331689554252,0.32161099637462265,0.2973997396332876,0.290290797124972,0.293308731236838,0.32252449536636557,0.3022849201369028,0.30214424999626843,0.30623289957030053,0.300362852643836,0.2951274364325304,0.28690897687209593,0.29412057131701375,0.29245752238370015,0.29667185406853047,0.3196919337512229,0.32585553714045323,0.30557927777115645,0.3195143114944953,0.2946815991478278,0.3031581775179596,0.29361224182250356,0.2964420632869743,0.3192483893985679,0.34237711318436415,0.2888874437347259,0.28904438073225913,0.30801960917004434,0.2886021915126681,0.2876089531730871,0.33644858676042516,0.3069245572582877,0.2982954947725513,0.3076638598815119,0.3034243695741833,0.2965296088116357,0.3060382245246223,0.3349183192597166,0.2934100420577413,0.3041037338875441,0.31181834873803466,0.28752071803853047,0.32450733140968246,0.30472704755940727,0.29288519530323215,0.3055164129952515,0.3003364926636259,0.3219795843665395,0.299582205843405,0.30867365761535226,0.31254020690460543,0.31516995378186685,0.30268222083708307,0.3132688440855277,0.3013409438402911,0.30187476165397154,0.3262355713184709,0.305037828180678,0.3206171636575482,0.32831553078114506,0.292711131604918,0.31933990615774965,0.3276103473004204,0.2912880424749465,0.2979102532218216,0.2893794323529292,0.30196561081318346,0.29912873821210273,0.29415882488413736,0.3331958706782601,0.31060436099289496,0.2871589591546786,0.2999192461186788,0.28914454552762553,0.2959968267216619,0.30211021187445963,0.3024614815662669,0.291987631451317,0.3083070527054236,0.35680032839275766,0.2951037300998606,0.3148303028553069,0.30341205961092815,0.2990492676487623,0.31091403414866703,0.29279969717158105,0.28318762275662096,0.297640435368603,0.29626483472282783,0.3236881220520425,0.29132240988978036,0.2958335133628906,0.28561692044743836,0.29644979131402543,0.3158507226339081,0.29689797832800546,0.2975231719696624,0.3055948022945893,0.2978361353692494,0.3148256296890994,0.3013518093823128,0.29184755600341467,0.2941243972748828,0.31960750509385605,0.30463387410471066,0.3493409598103808,0.2997703143762146,0.31231190874302023,0.3039904033295196,0.3119055554292397,0.29175763030722257,0.3170354487546962,0.30535008092131555,0.2925817111144801,0.30446763041133706,0.29440584207895093,0.3046779793400363,0.3028784117432676,0.30103452403242215,0.2907526946877576,0.3064142235361488,0.3078814136387144,0.3185984079328625,0.322996604128045,0.3103754865901981,0.3000466059064827,0.32511749457118766,0.2915226415046804,0.3086569757963798,0.29767973048162755,0.2878468510052306,0.3000721413908928,0.3073926289843854,0.31388705061925626,0.28766930238478283,0.32075255623406973,0.3003082549093653,0.2918950363068893,0.30748596457185134,0.28764533036426176,0.3213038984743174,0.3164142870614487,0.2868068987795639,0.29844748171030555,0.318814260791179,0.32220221977981633,0.29675884982123,0.3001400858038944,0.2916098498705188,0.3228861828424054,0.31484229998255053,0.3043817531179913,0.3139340637191569,0.2995471928387329,0.3029695559114794,0.3066111893829081,0.29663988539918806,0.3448310144990167,0.32681465373543306,0.32769679491863785,0.29970302132805143,0.3049555691537982,0.28467575771829867,0.3098280804643184,0.30294882910475224,0.2980850735208417,0.3158842004792989,0.32173469746022204,0.3006701900305531,0.285343897142906,0.2946839986817202,0.30385520325929205,0.30098766605919763,0.2924260535894142,0.31292678327966683,0.3111077452558916,0.3076962207780474,0.29828353105504113,0.3022052194111716,0.30523781679126205,0.2978997824455557,0.2914965723848786,0.2944020648328156,0.28635290649354517,0.3224643091099377,0.3067867518242486,0.30222966002776286,0.3158514815426679,0.30217327378295483,0.3119773449925027,0.3129006239983877,0.2903693266361813,0.3325563042144301,0.3146578021139546,0.30911984311798996,0.30194915137928274,0.3060378427440867,0.33370521512305384,0.32218538767421456,0.30037407977300973,0.3029797168162409,0.3045157249110538,0.33938622925390394,0.2988107138586943,0.2839429109276709,0.30757944967125156,0.3203625957468413,0.31189325390466827,0.2967060776884978,0.32592082285897517,0.30114685980181716,0.2898025063612456,0.29152966653250295,0.3050723565860484,0.29375586229038303,0.3400253565583919,0.31180447137367756,0.33408862965934544,0.3046807571819745,0.3229179583019103,0.3175398743200403,0.31384968997859775,0.2907014320227086,0.3014414615412446,0.30893380991254615,0.2990545563786114,0.2932258322367701,0.352331228407047,0.3108659366191442,0.30317143231153837,0.30365245146071423,0.2863563163175778,0.29744899254942714,0.3057817880857589,0.3003032654450984,0.29396250468517876,0.2988112448420775,0.3187928938682766,0.3167290697097042,0.30220268518134896,0.2936663753259413,0.29964729463446316,0.29258695534287027,0.298239949330059,0.28931358726920603,0.29000263665007975,0.29603203260701155,0.29253273232924243,0.3180155209303035,0.29860929120916485,0.2932827138277284,0.2870128345641432,0.2905474244902406,0.2934105534309252,0.3067810784564131,0.28780461080762815,0.29763603967728247,0.2964982577702287,0.2917838171943462,0.33554836434387353,0.2915199204176786,0.3040433135732368,0.3292262563280795,0.29704800626990446,0.2870558568925307,0.3266427699103863,0.31828188852142403,0.29102084739303075,0.3131422001363602,0.3722029499319074,0.30650572063957526,0.29531275251884226,0.29880981652451355,0.29420710251446147,0.29809913444292596,0.31767606969511736,0.2948162117165701,0.3216676997526845,0.3335903919124152,0.3309423854692698,0.28542374027956724,0.29535721392322106,0.29930220995196255,0.3043980981299685,0.3084650375340375,0.30713532240005825,0.3113497422043362,0.2936449042735623,0.30556654228153696,0.3018200579984584,0.2979796382071007,0.29548210379102746,0.33064018524609823,0.2986324839657105,0.3111853707568673,0.28588939634095456,0.3064070526991691,0.3185690012630495,0.29666230398324533,0.2875080033629375,0.292260288063152,0.29379021083787366,0.3143446008044896,0.2893581371142182,0.3027798334777397,0.2941296914180461,0.3025767568338314,0.28877729204181596,0.28839440486973544,0.3349374213996529,0.3013890638764978,0.298173612567974,0.2910690411332798,0.2993977476173934,0.2990070669578645,0.32265639908277327,0.29601209187115013,0.293853184777845,0.2990583359518412,0.3057732384663567,0.3036492978098741,0.2971415926635391,0.32385626976244974,0.3209020977501981,0.3200721927073725,0.30227314583145815,0.2986477273556754,0.31010405321383994,0.3012546396813165,0.29365743851578957,0.3078920340345998,0.311608111586814,0.2968793950503934,0.30625120051540045,0.30046731936589205,0.3167648529729655,0.3062627331317311
5,0.3321433773662462,0.3147261582852322,0.3148226393432382,0.35134490827840004,0.3126653481961096,0.2939153609919186,0.32002411674822784,0.31163984212407897,0.30204372892198583,0.30007025730332465,0.2991313558058548,0.29643185475495754,0.2979973402340766,0.31815885315823844,0.2968144086355685,0.3103415474988135,0.3244723359422358,0.2918176747108058,0.2948299253016391,0.3307731797774189,0.35553592689046737,0.29268496894008056,0.3048494861298723,0.29585990231820036,0.3100777609290787,0.3106850009171588,0.3040800566187224,0.2942101258693944,0.29483423883372345,0.3372931526544318,0.33398649038966666,0.2938760139978146,0.2862821846723263,0.30461416663852453,0.29655207473846085,0.2919594728148693,0.2944063923810662,0.3242428441882013,0.2904755166112034,0.29658474638016147,0.30272553122933543,0.30634607423348237,0.30847353546406964,0.3211599288537119,0.2929242301200549,0.294709987058217,0.2871452138028091,0.30489195490166004,0.30277840202730316,0.29106262901970464,0.3004833397211162,0.29694239666962985,0.3326474982279968,0.31636840169397235,0.29737817782608966,0.31014684670668397,0.30304653322947206,0.3045687786532234,0.3138968608163223,0.2948950535247341,0.30568992567737574,0.35860352858686756,0.31072575443773964,0.29760648775946913,0.3110961418011524,0.30127013374334305,0.29564257027829977,0.31431439536558736,0.2915395722149968,0.2937396223291234,0.29749174971669007,0.29898891550475215,0.3042184633903509,0.3051353327540321,0.321969701346082,0.3206559259971479,0.2970877756525031,0.28862793315569896,0.31242720647359307,0.3056092373661875,0.3080894822027084,0.2911607466587912,0.29515124861664316,0.3013967945871466,0.2913110862833427,0.3039959918974847,0.292735307637986,0.30008994335197425,0.30011057183461004,0.28833078837100073,0.3248988689519805,0.2923432693138428,0.3007708606838825,0.2930044665609348,0.3121321294796504,0.2900263662287325,0.3060967894726256,0.29884411525196497,0.30838288708062495,0.31887576475875407,0.30960993731113173,0.316285422167002,0.31524526213774645,0.2946329763993752,0.31486308806041424,0.3148947046601603,0.31416884812577284,0.32357907246483364,0.32691075793789454,0.2970627103253526,0.3011066293709864,0.29481586255285763,0.31647463326950354,0.2989315098493451,0.29578384205688774,0.31805544331236785,0.37283475231768415,0.28932902207412,0.2931121649108603,0.31350920435396107,0.2916992248615955,0.299087848731249,0.3032921200971506,0.3179363743074626,0.30457407128770864,0.30444276057583214,0.293373837858926,0.3054725383783721,0.3045048382628602,0.2813867326610984,0.30147993518483174,0.30489572774992696,0.29548793322105227,0.31028389602383366,0.31290545787094126,0.29184302319951605,0.3105333841304786,0.34900578744355604,0.3047760530393731,0.28506687085882115,0.2979640143108946,0.2892682788649602,0.2897717566804896,0.29750339879922477,0.29790793459765086,0.3083497159607446,0.2965536268930209,0.32253978320342136,0.29323427307799016,0.3054126527711559,0.30107841131908747,0.34157614021416316,0.3145632877878257,0.31522325085234926,0.2884803695190404,0.3071235355790423,0.3175584467818602,0.30708259139992033,0.3137862205447878,0.3102745167171948,0.2971425079611625,0.3162815432718717,0.29963482415562914,0.30621147420966216,0.3116774871845146,0.30025206452366693,0.2922074467745634,0.2997093762956318,0.30251946034402,0.30194429421966873,0.3022677848449667,0.3113760662808948,0.3112520944805095,0.311495794756975,0.29317743801355245,0.29115477629235864,0.3117818321098967,0.3052569835640272,0.29533766099329983,0.3003532964645342,0.2861183938266419,0.29757060786728184,0.3128253585087712,0.3082676971475733,0.31297000809739073,0.3051916311768775,0.3126721863749269,0.3051093136477123,0.31529261655489504,0.2933239907765337,0.30145078286834487,0.2995238894393595,0.2918739780242089,0.30959949137554565,0.305481810234845,0.32392403375706824,0.3055296932431845,0.3128625776831817,0.3039419478194575,0.30939080690032267,0.3458282920199295,0.2987161496294914,0.2880486770572161,0.3097995311117346,0.29661086073710086,0.29571805349196506,0.2984696948271229,0.2959153980223669,0.3114308731404858,0.29706508783248103,0.3030421686167802,0.30068839282836923,0.304616439298653,0.3138075930219293,0.31333174964015753,0.2916537702192605,0.3063606921201999,0.30598132001031353,0.2876299735110342,0.29291889036191626,0.31676197825232955,0.28248498473463995,0.31960255849816166,0.3042149421939004,0.3185335788599786,0.298149201881753,0.3080507669461301,0.3147912438582531,0.2918719482938622,0.3072724794010103,0.3032723522531653,0.2952689897529218,0.29578655814787747,0.3086323057540035,0.30834868446923913,0.283865942747462,0.3061345284074667,0.30034973104759544,0.30121694194745374,0.29051650253328976,0.30463117848423443,0.32623397013607197,0.35276261456327707,0.2934086842747899,0.30267148807187094,0.2968873917168043,0.31738989648982874,0.3153116619523367,0.30305363525229145,0.2952557942017556,0.3136978396253034,0.30048565351465195,0.31288150211662474,0.3001616372952062,0.28855809190118936,0.28866604963867243,0.30126014140012897,0.29609507389109063,0.305021594280754,0.30046244556120116,0.3038867661903305,0.29957701697574696,0.29209370717771926,0.3154279443683982,0.30511023907598644,0.29942008695716293,0.3128800175880464,0.3031327103914465,0.3210560826662482,0.2883670775133449,0.30034300249933976,0.31270645303752037,0.30981228523435445,0.2961207664981546,0.37841348533810143,0.3071739207926304,0.312304015722995,0.2912650190520636,0.3000021767629191,0.3141770699982071,0.3235185061354011,0.28642345310300305,0.30529195556829153,0.2966851353194371,0.3066044716112482,0.3310812505501671,0.3201708449041751,0.3223942887068571,0.29122796128266176,0.2983252173044891,0.30968029387748297,0.3240850982365119,0.29744626774318456,0.3021711312394183,0.3156903993161864,0.3385339058977746,0.3355086517763285,0.29937549751625825,0.31480040596946524,0.3020484637198655,0.3023548281891234,0.3040210708514246,0.28540590643899677,0.29313908149880047,0.3097857072949891,0.3123923689700594,0.29158301265308234,0.3521042657955414,0.30510301327560996,0.30206815982389246,0.3181638677045132,0.32188435646642394,0.3098076717287503,0.29851766865671975,0.34283107498010096,0.31065441533712307,0.32961621956726345,0.3070739559029986,0.28529487696337974,0.31446766518978236,0.3217722937009115,0.2907558734162444,0.3101300892835618,0.31344566052966455,0.2931468444149808,0.2875175576972221,0.3234117093352028,0.31395586112584395,0.320899441735164,0.3103421677612943,0.30803976794038135,0.28496111144881225,0.29191450718613765,0.2932301616332946,0.29600447592806567,0.3077561011696993,0.3130471925702357,0.30538216535225937,0.30568416935589304,0.3196062654075491,0.29428430369670633,0.30011347056049303,0.29742374664161914,0.29228219453048604,0.3151555340602417,0.3251899146920161,0.30162122132650476,0.3051835447065273,0.3070944032351535,0.3004884385114101,0.3142713062843008,0.30792531186303473,0.30680407234613977,0.33416937484246695,0.2954972470955546,0.3223896712007348,0.31022709000107246,0.3133412352584144,0.30161720712484874,0.29344185894635894,0.3553162525535752,0.3113362021677677,0.3212827506012689,0.3074523921272925,0.30550352137682324,0.31656498329519583,0.28433735627601064,0.2862163723846826,0.31346431634355165,0.2987821107345278,0.3056088663339112,0.30370489392260713,0.31807239521828407,0.3015162728721487,0.3014738561553833,0.29400931329681806,0.3075934472669604,0.31053829611199557,0.31118235895860286,0.31088197054454114,0.32292997315812066,0.3181769942043223,0.31504040358648205,0.3019224714882303,0.3078428021627764,0.2940638204111322,0.3138001015822993,0.2961010646704597,0.2928999835368936,0.2967079863637798,0.327270271982244,0.32070032524393344,0.29546390839352366,0.3136974131098512,0.3090528485442719,0.2997916736837459,0.28988458672831047,0.3135414472179046,0.3153743685896081,0.30479746329409074,0.3096990122288309,0.29882536843721397,0.2914487176760442,0.29794375184674793,0.2917471810765835,0.29652011288710506,0.2890135557607351,0.2867062128801302,0.30517743692007304,0.30244167107061065,0.30313102292861444,0.2930325893499773,0.2866189855536871,0.2954127741740616,0.29671315519389396,0.3009103909799534,0.30028942058144914,0.3247301132913697,0.29355895877495763,0.2973923565672162,0.3142880127078373,0.3071331325714924,0.31395313658041923,0.3114973945235666,0.30763226221126805,0.3258163003079394,0.307281406601026,0.2899559355992919,0.3178422317216034,0.353763133698067,0.29149676701243893,0.3213449581012465,0.30334961224440854,0.3137702594207346,0.2881263645437106,0.3071367836510662,0.2968875640109522,0.31475520447821526,0.2953479386578351,0.3045897954666127,0.28915252107167844,0.32635738103764916,0.3012594544455741,0.2852423753233032,0.28911618127880223,0.301807089869266,0.28725333179823226,0.30342059170132785,0.2921450254251137,0.3185685310036223,0.2972764393783053,0.3103433929383579,0.31143435718212,0.3057476365994369,0.2991115316437939,0.3121498757321397,0.29840799234272103,0.3178589589079799,0.3261475917564413,0.31031340784885597,0.3203884561690161,0.31723335132751174,0.2987151794484688,0.30123151743902277,0.2953068021972378,0.3048595785829929,0.3008045008104034,0.3124079669791133,0.30615239957713813,0.3561724299727732,0.29657703627388404,0.3143520446513347,0.3201150145188259,0.3042775159389481,0.3044723835060933,0.3023867665870338,0.29682855665074004,0.2858941507378787,0.30453308788853184,0.2906259976457558,0.312064665036868,0.29435469746043746,0.3012569164518732,0.30532433858039865,0.3228407386998806,0.30213582935836836,0.33992861590431667,0.29951714093987203,0.3365763079203502,0.310069495643857,0.30830847562878616,0.29974299477267696,0.3010414642842506,0.29356684397652383,0.29371312550672873,0.302998932860324,0.3168639802052479,0.3035553970903108,0.3181515735528247,0.3036545307683196
6,0.29738768165790674,0.2885586305974621,0.29834647778575873,0.3150276029626852,0.2883941209435129,0.30039538955164125,0.3094784531752183,0.30408667420235636,0.29817220307137854,0.3208851287435187,0.28435582277220345,0.3227559688796545,0.30134667629043554,0.30616213702380957,0.2999924704416834,0.2931657637628473,0.3037152106293949,0.31994798055845713,0.30427902530002515,0.37056126605933076,0.3134468631239861,0.29317026688110487,0.29249977550764716,0.31657598336440645,0.29318415199328823,0.28935857755915345,0.3033597327432517,0.29458404520235615,0.31964813020862565,0.31295070503732275,0.33036104233662,0.33423468170407966,0.3017800111288998,0.30491950479842456,0.3416236724093576,0.30941236664083,0.31331987260029703,0.32736384244654976,0.3105714619762972,0.29895437905509004,0.2978650152615519,0.3021282349262945,0.3055827007552172,0.30046998443684003,0.29698015098201924,0.3025084982921214,0.29033121457010747,0.30700969420878466,0.3040472866366302,0.3285633801830218,0.30826674770466367,0.2968507345385059,0.3202278591667571,0.3030419876505342,0.29430694013759673,0.3177829218411839,0.2955789659024525,0.2992809594809617,0.35199804180334937,0.3036087999214653,0.29485532414405563,0.33297577808198764,0.3002364242761299,0.2990862116646796,0.3159471576855767,0.29465737454383417,0.2958024650159294,0.32554458107126427,0.29966636160659116,0.29747404337791084,0.31976265363072737,0.3011734702476987,0.30287153986447835,0.297055411652287,0.311687651954011,0.29750848311076583,0.3067444768170061,0.303645405641831,0.2930359251278703,0.2999655415891878,0.32179542389725924,0.31972190161288716,0.2936689836640039,0.30004932786671334,0.29279978067200885,0.298724934556488,0.2878288037703402,0.30890750272238643,0.3126187210545968,0.292762867762144,0.29814309945412887,0.32348582270993453,0.32550148984915916,0.29702000977610504,0.3101358772732036,0.2963664881182867,0.31506844847528537,0.3171246157155978,0.31864436165599297,0.28663278135646586,0.3257472404206396,0.34452626441486717,0.2971141686658264,0.3154502670737672,0.33725893927022627,0.30443966219522917,0.30032401901567807,0.30923066490769097,0.3072439873066949,0.2948118899172273,0.30928242158904,0.32477880286422,0.3209644616937062,0.3116721718608196,0.2870795837009268,0.29570003659056154,0.3818933522037159,0.29187272021501226,0.30668097544797224,0.3003582773682038,0.31117763293032347,0.3076364077567275,0.309309307023039,0.30650478892902433,0.3024436511315008,0.29868864205700013,0.2988138923264539,0.31413634649171074,0.3265706912728318,0.2978135693708218,0.2961065124317312,0.30023977126980483,0.28785975553223375,0.3010841154364095,0.3050450158120427,0.3291983232966761,0.32133319523038306,0.31921716615359563,0.28611047759553326,0.28835165759044096,0.31719477529318285,0.28804402544511054,0.2969749896803492,0.2986717462874846,0.3325870855608121,0.32137073758752915,0.29252253781653603,0.3141285970056498,0.2908031076734086,0.2984062972748832,0.29578954673196184,0.29882452173173524,0.3195845395682352,0.2905950865428076,0.29680432807077345,0.3113721457596135,0.3257219064218712,0.3036344382347404,0.31618938502160077,0.3270310704332412,0.28951278309878326,0.3053601653319282,0.3086524261778315,0.2967496277950362,0.30353763949169743,0.3245608511894878,0.2908120602877081,0.29019905998283424,0.3050065055547181,0.3226252875409251,0.29730107962774727,0.3120906869595637,0.2915359578225135,0.3080175049502649,0.305867295902514,0.29074678118233876,0.3202917584384709,0.2934725490097037,0.2925635377471142,0.30109992499331517,0.29002227578717366,0.2896109940029161,0.3073893726856599,0.30314306377798933,0.3038062618298003,0.31068545324572333,0.36539124479433127,0.29673862296591097,0.3162830402430293,0.29088437668529643,0.301695671685126,0.3108972081268612,0.2876565879423522,0.30671885185738595,0.30340671720280665,0.32854513744403424,0.3041342548974426,0.2986668446987476,0.29581054498534626,0.30537708381990136,0.3298364078340708,0.2938628918691404,0.29444241253723946,0.3113896566270868,0.29028101972250175,0.2992394243629227,0.30058967343174137,0.305851941710215,0.35447941956408036,0.30795724884518594,0.2971985216809326,0.3296262254760623,0.3306194189190687,0.306268183506909,0.353198553752304,0.2904072682875404,0.30484492562093424,0.30038183511744315,0.3036715267393534,0.3049310747876419,0.3017882137704408,0.29045223057515035,0.29554400013118026,0.3260657967017282,0.316939478645794,0.3242189466781906,0.2969626197236143,0.2951726916503106,0.2984263896662172,0.3211245228723508,0.29938019867561005,0.29710061037560875,0.32117662111030315,0.2867346975478703,0.29233881477762086,0.29182860823534973,0.29954258832103087,0.30135351803446386,0.3059303894449323,0.3259543057405855,0.2857664892903767,0.2920477162258229,0.3121729076094324,0.2891634562338929,0.3105130304992776,0.30136840927117553,0.3009121426706608,0.3066743179499293,0.29865093431628337,0.3053489561023864,0.324442536805366,0.3228301891615968,0.29175869060039333,0.28609777038510226,0.2979121834634512,0.2926612860227514,0.2933740539717748,0.2915443296785377,0.28720081972615613,0.30390101444518725,0.3089016339696012,0.30410809394547783,0.295439495659033,0.32666335236238353,0.2901014981920484,0.3117476268649054,0.31357079392451565,0.3061805718262272,0.3218726167135549,0.29498110132017913,0.30048340731691225,0.29623120525727514,0.3043469914264963,0.29732227380356907,0.3436707800905675,0.30638298893938865,0.3323041056393778,0.31124386687694405,0.28864175781747975,0.3107788043364176,0.29416513426997226,0.2876826071889712,0.2947560300436879,0.2923201066572068,0.3243057847188699,0.3152013558359673,0.30723782327455174,0.3060621996421551,0.2908751826537345,0.30043813886409443,0.30180827658052384,0.31702547258931046,0.2902661534814691,0.2914681829963832,0.30816315847642806,0.3613514272471823,0.32319956456669574,0.2931348900867859,0.3189387252353007,0.2888328038386818,0.2964288035172855,0.31829321247153697,0.2929275644841764,0.2970096176571675,0.32293521715830165,0.2938628926417707,0.3111807823478629,0.31861997352905336,0.29513542514914765,0.29607277591656345,0.28711525520894654,0.29993104850445296,0.31341199034642353,0.31244717402067945,0.3039320122890744,0.3004049625804913,0.2955441017049331,0.3052900230160188,0.29556015844566075,0.3128359367660195,0.3195311804564186,0.2867747301393256,0.30725113845300706,0.30742083426238903,0.32290265200470036,0.29555110393642475,0.32604427877015085,0.3130685506261278,0.30356088563248895,0.30971112766200803,0.2976645193744544,0.2936939803889453,0.2873933872429643,0.2912421772464092,0.30238326238776897,0.30765664716195584,0.3166940519557563,0.29532428686755907,0.30192290844767433,0.3029789935969035,0.2868632257292104,0.2982652702439398,0.3137285578297697,0.2968238125055068,0.30791043058876555,0.3075350976050794,0.2969755277950351,0.2973611392807283,0.3135905373743316,0.3077315665432574,0.3221775531629311,0.3041613715290231,0.3078647927130873,0.30642106538965014,0.29827238507886195,0.3266094869998281,0.31003518150417453,0.3157058309225507,0.3076817158299996,0.2947050688746503,0.3387084717101415,0.335425851922219,0.29673886861828885,0.3284706987851869,0.29566243770554473,0.3274327418655395,0.312209971756128,0.28783934174590126,0.32043965531975693,0.31427913438392696,0.2985366638082341,0.2904916372028162,0.3349569503424034,0.3326166402022042,0.28982497690919246,0.2817587341827664,0.305754400995894,0.3206072715757823,0.3282724636856753,0.2950225401685669,0.3201446390737025,0.31033395466787594,0.30783213387315456,0.2978083323365033,0.31028089704184586,0.3093629957606351,0.34164116278757395,0.30153581621053727,0.29544180743966814,0.2941413890747602,0.3623300435711519,0.30251947975771526,0.2918307308868846,0.30846031624474246,0.30508279349404666,0.2979380806965489,0.2941950370409706,0.3029204461745278,0.29783624262815656,0.2909798927547236,0.30263497012253665,0.29675098109119435,0.2953816585589677,0.33237384444073004,0.2877604343092847,0.2913885047569818,0.2919437526937341,0.2998369884726667,0.30671695022579526,0.28822797331702343,0.30547801694317034,0.2967799086390626,0.2983532781456212,0.299976305961526,0.28456873527845594,0.30962654039953574,0.30907574775751545,0.30401642277818136,0.29574629974699207,0.31782400347893913,0.3139325451716057,0.29425029042846773,0.3656465427044549,0.3004483021697154,0.3142401400595697,0.299625934090995,0.29721205524142985,0.3004727665511643,0.2987709460074274,0.33227688540795214,0.29868089025067734,0.3363000751575047,0.318770004587955,0.2916480568075631,0.2890728872132301,0.30110437858021644,0.3135860154060675,0.31044907137447525,0.30518388055140655,0.3219891719431078,0.3086607158878517,0.32194110724178293,0.2919577259716018,0.2932565720263106,0.3044784515888394,0.29050190820937616,0.3236867357848461,0.3202116777221592,0.29629002884860306,0.3639279630639595,0.31636263130963665,0.3099667570520471,0.2939357709130629,0.3066120852791521,0.2940666518793866,0.3110296656343922,0.29094082332331456,0.3440583933136445,0.2854211331894097,0.30438110484035535,0.2974664943383906,0.2908077341170667,0.30268668662368037,0.29962411112302195,0.3199991846706165,0.3036244266132959,0.29980912044362185,0.3205657145867104,0.31274501813986977,0.33913345864176553,0.29297472496426713,0.3000264009919918,0.31721896019925855,0.30506789983478194,0.29477771022280386,0.32564449914250393,0.29711975257137757,0.3011770344648255,0.3177877079637784,0.29279413714059455,0.2915849266944897,0.294407504687371,0.3087397889179057,0.3229555780722008,0.3031417832274576,0.2926380723803542,0.31723999521057933,0.30148971312616946,0.29986695555047116,0.309621549978297,0.30130921353740814,0.30117791313080466,0.31361381548485295,0.29453917441980687,0.2860032485768706,0.30551637370156975,0.32437265249202724,0.3016478623317948,0.3035838311802838,0.29955353758135866
7,0.322555754597292,0.3012669547446979,0.3239156597874377,0.3060332559862711,0.29161667135064395,0.2851633925948967,0.3347966992171275,0.30620575708974457,0.29644707530598424,0.30863535748958165,0.28716654549262777,0.327774040093345,0.29769416304367197,0.2925489851954851,0.3228190590140717,0.3010857358667785,0.33518376199100886,0.3139676766440835,0.3052880840685034,0.3221080953270916,0.3081342909248901,0.29395547093836166,0.2962668969542024,0.32377810220885717,0.29849297627364857,0.3147962808322019,0.31288733822389425,0.2987559961798005,0.30925276394876605,0.30934549131275657,0.3146835297718328,0.35304312736782345,0.299767867753331,0.3051555161925976,0.31741873436911117,0.298606320520366,0.30273772758618644,0.3141866908275296,0.29737641628502126,0.3027664146547363,0.3024353168626745,0.31164788478926486,0.3101694000076019,0.30546434398690014,0.3079458870636602,0.28676231809269087,0.3046022404540249,0.29675696413932223,0.2953877703372725,0.29800544837767406,0.29806988584233407,0.2945820937808809,0.38027757541888707,0.31344617055905194,0.2977256301728861,0.2940399136733288,0.29513450078503956,0.28949947624615757,0.312766553604564,0.297824356656546,0.295332029282244,0.3144923844497497,0.3119953657402904,0.2883608551879896,0.30798896499876716,0.3174922970716449,0.2971505098827055,0.31902399806688775,0.307929472773015,0.30139181913963153,0.30180435800990485,0.3018977257750257,0.2891431413952774,0.30532801576602997,0.32193544021297443,0.3114968655297836,0.28997092622889464,0.2903327891691599,0.3011135389576466,0.30931501461172994,0.300053719323612,0.29285188257933004,0.3159647673662551,0.3072275855494627,0.2958591608685228,0.3024858440525718,0.29402390330385886,0.2962093841182948,0.34205696292097376,0.2894390063883412,0.3045614558231439,0.29367207679484447,0.29900207047134597,0.29530808246013024,0.31440335281395193,0.2945856294121608,0.32825556207244017,0.2893225860369665,0.3060320786481271,0.2906411523998543,0.31187024443040917,0.3515384721676142,0.3045120987512749,0.297152715042187,0.32461733815526395,0.3133250912611052,0.2954947419544667,0.3515391145527048,0.30797522138464567,0.3024002202783895,0.297162182625185,0.31213099381162296,0.3032390735367032,0.29813391179518417,0.3104595274222596,0.2953833234564681,0.3213073824552786,0.2813629489915671,0.28531954133339943,0.2925403042179467,0.29668189212593726,0.291109124875346,0.29398601690924536,0.3013578596762895,0.29428106792793896,0.2982527747954705,0.2879274749943477,0.3256699152864916,0.3098642606551226,0.29708848869250465,0.3363360157101246,0.29981379685001963,0.302883930812203,0.31416150414792277,0.31713071661123654,0.3114493619035875,0.2980890976352873,0.3224796553165563,0.2930228028250144,0.29681790001368846,0.29762840588070905,0.30310233159101324,0.295580717649197,0.2920547342652534,0.32483005516103935,0.3113986352835446,0.3199539819706251,0.3269885322889701,0.28891114157284725,0.29667653005436156,0.30941290739605987,0.3090304561955547,0.32341212396848495,0.3065782322657714,0.3016750225771144,0.31135297693338704,0.32970104473408013,0.29627088204714264,0.3178605882417467,0.30601057089220723,0.30984754083043314,0.34146808887920516,0.30552402150409863,0.33038795471947713,0.3081545727908422,0.28726598159312833,0.3020709882732858,0.3260501982447731,0.3084908118976397,0.32778865649551064,0.2997017787339037,0.29632273445129803,0.30300312354468006,0.3190174433054546,0.29822710015520126,0.30526221822850974,0.30627000536424737,0.28749399758078503,0.31702191433059024,0.29829864117510296,0.2992178793679571,0.2934185394167387,0.2944587693308593,0.289703636484492,0.3089088139514752,0.3079137942730755,0.2881751200982259,0.3094954855199779,0.28952922863946107,0.2918531500969922,0.3251487861510047,0.3138910095249546,0.29871642906273344,0.30857458792652304,0.2961583228448067,0.2949836056512397,0.30995744658539964,0.2973042713082916,0.29666733563691644,0.33315480759815286,0.3551264745736212,0.309285160382044,0.30951232450174115,0.2990714835053258,0.29631713260609904,0.2975566888657214,0.29821782794972446,0.29725165092551326,0.3401444541766005,0.29607428416556714,0.30844767513603577,0.3240194393129392,0.29815175526519244,0.3024726634198729,0.3567169879004754,0.29763519767590896,0.29369971550143326,0.29995393498619094,0.28588706455293217,0.2929733921227942,0.3008644911949987,0.2876145820116569,0.3059675772585248,0.3429269541759282,0.3306562496294142,0.30929429901408906,0.31400766432478716,0.2945399073197733,0.30735461004729203,0.29703181900304576,0.2943900084052692,0.304152933665689,0.30270696171284733,0.2971695409354437,0.2924466457993418,0.2939446645900853,0.3020003779180533,0.3123569413683842,0.3190577220936057,0.29431204519556253,0.30061429998447825,0.30022822121150095,0.3120325607479857,0.30109808368298224,0.30459709621288816,0.30058601790947803,0.29333058706732257,0.3196298260692369,0.2994623251809992,0.2929132142994695,0.3145835543862647,0.3078685233804238,0.32137734630232495,0.2960395086937087,0.2975822997904093,0.28246724194981476,0.299948745535482,0.2919963487701972,0.28794327159535016,0.30316778584023696,0.2929750979540772,0.3084102581020972,0.3048632512679147,0.3087442454952918,0.28721030876936665,0.30035233689657675,0.3175007768721162,0.316626719567387,0.31190950718252347,0.29255119639341653,0.29726129575581545,0.304915091850858,0.296420649547627,0.3132090108902542,0.3611335264639749,0.3060240615663973,0.3003747939555863,0.29663455582399106,0.2947382984050274,0.30929244291454216,0.29618881429406235,0.2852635115740888,0.30375149366518095,0.29840299141423443,0.30114890217274415,0.3169370114198281,0.2980102948143572,0.3038098573945105,0.3032210011134414,0.3118842176414642,0.3227680459756156,0.33624649773257603,0.30347651966324657,0.287912106754863,0.3275459617990922,0.3219013662814221,0.3136067639870531,0.2911401688374042,0.31141633336094543,0.2875756891239918,0.28965866164512183,0.32953039237762904,0.2957466814631338,0.2919175971881259,0.29868383953855177,0.29417044751189503,0.30097160630321235,0.2950383895170555,0.3172649909529966,0.30118068651743735,0.30295205797454217,0.2891906354817085,0.2921515214716931,0.30040179068017636,0.3008541391442143,0.29426852670309595,0.29935613958103524,0.32999975886983557,0.2904122179278249,0.32021435923562214,0.29737976173748254,0.2991844135031288,0.29622744327234324,0.3010415013264173,0.30650406112593354,0.29495511141209396,0.30711194859630037,0.3118486631265905,0.30256439031939797,0.31898270036754,0.328395279786556,0.3088406965978934,0.2890166582552617,0.30343760394912833,0.3050457394266676,0.318209876872013,0.3057146492316018,0.3085699653179906,0.2997401692200064,0.2975283364329022,0.3119945186304111,0.2914672005423769,0.29756993138432525,0.2921539418301973,0.3207367131790871,0.2982696599510652,0.2901776191255425,0.3176259571475409,0.2952956510401368,0.29471430587931413,0.30878240250585487,0.2985798591235377,0.3370823866403419,0.32108799923467995,0.2868896237102193,0.3327062644610602,0.3054181614688921,0.31830327510828926,0.3025761791615765,0.2969430667592346,0.29116965595845123,0.31572282410177843,0.2947806465831694,0.3161268569970632,0.2990902892047109,0.3133999527822583,0.33228267730513705,0.2951627480543699,0.3018562475434291,0.29743768180396646,0.30901206065309744,0.2927133995798977,0.3005718423019856,0.3469789235744833,0.3091895902926058,0.2899151145143446,0.30107570968924285,0.3051755558251028,0.30696095011043684,0.3180579424002343,0.30734768311514027,0.28521557867187247,0.3145328306417496,0.3060281335653786,0.2996537429188234,0.3108301470741893,0.322095022351176,0.28758068931565295,0.2918734765901207,0.30167847703805073,0.3258176834116711,0.3001641078587184,0.29140704702026043,0.307089702988039,0.30409718444823075,0.29097079488479516,0.30472657025133365,0.349029777641845,0.2892243279366392,0.29503494121328383,0.30870054037626815,0.2864825828319072,0.30822659488480414,0.2912718040848498,0.30083741276148684,0.2970149254183423,0.3168277419879378,0.29779182796684306,0.31153373544450347,0.30613412679415214,0.3064068608504135,0.30223585493829114,0.2958091476859601,0.2964261481299926,0.28512870092681875,0.29662548448471154,0.29678820978018106,0.3107054505677354,0.289913570430661,0.30196617967751643,0.33739522344627104,0.3005710623373155,0.32008248881900786,0.29624440261007456,0.3006162829942653,0.31949387719305145,0.3098822224641805,0.29660994951910413,0.3510038010178534,0.31279400865294865,0.30815631370074686,0.32845451615623605,0.3166786808813128,0.2949771504728017,0.33879615926804374,0.2900958858341335,0.29124329464340426,0.3034164566301637,0.28818340213809895,0.31188983520585045,0.3023069557022936,0.3091217815008493,0.30951666150510204,0.29643522249945803,0.2953444032921963,0.2876197921032958,0.304518464511448,0.30078177513782134,0.29693486262724156,0.2926112421088253,0.3282776509769854,0.30898255523919016,0.3159543593954878,0.313085811047797,0.2912414740620597,0.3366988476681584,0.3042478616580944,0.3242794561556809,0.33865953412550065,0.29947305154573833,0.28579615262688207,0.3123856938566756,0.29382287522189376,0.30958831427448785,0.3178019164481697,0.3012418283187741,0.29520767764158407,0.32116146140317997,0.285286807627603,0.3192989796716096,0.2854938118653689,0.2932804064046863,0.3206175828781972,0.2879320622489079,0.30437818687190954,0.30227824914246215,0.32989048189496717,0.29221869760888686,0.34213491332271767,0.29581092404514975,0.281997186118665,0.3082784480638228,0.3035515809138882,0.33696676465153846,0.29671859966024194,0.2873522433770144,0.33034007524548903,0.31386720922684974,0.30112924209201386,0.3013400889673777,0.3011251581940231,0.28788063990883833,0.30339802718976255,0.33048605074253584,0.3125846044978339,0.2978351958484645,0.3094013329349158,0.2969986257287553,0.32689063275306235,0.2982075010017583
8,0.3109207282437451,0.3068342201540297,0.34213783755885147,0.33103188857265053,0.2955266257065408,0.29030241437893595,0.3004386637104415,0.3077071774706793,0.2984756648665343,0.29739421929644905,0.29582407179208897,0.30379340921972336,0.32282700377177703,0.3009839095021419,0.31917587542904197,0.3024655924911782,0.3138576349810048,0.3098408994345728,0.29910388779146446,0.35121140211324187,0.2933061568139629,0.30290156378789446,0.3182840147842578,0.2969461333703999,0.2883689108962307,0.2974503589070306,0.308711190788615,0.29502988861215784,0.3037431710484492,0.30977193909001116,0.29809649127245136,0.2923369432188302,0.2944503145213436,0.3060220831211877,0.33647974249550416,0.29508273919697026,0.2953501697148532,0.34187100640815904,0.2875662978794832,0.28716304194581305,0.2967795216352866,0.2803992645307844,0.31312840001910647,0.2927834500471016,0.30941746860170516,0.29149516356777105,0.2954160409534527,0.3035747857261623,0.3102623233654914,0.28845291553324676,0.3028258576270134,0.30822298545999316,0.30223618313682254,0.29434994508330803,0.302172377650208,0.30313311313217145,0.297090048493115,0.31964964975543964,0.3337107627053549,0.2999211876559281,0.3006763380795124,0.3676221225512026,0.31211017571754784,0.31579861286293875,0.2921287422900264,0.3068717803566448,0.3058039374704402,0.2990097071766644,0.3090828746294848,0.2990759660565048,0.29829362697719225,0.2949852811970709,0.29739460574304477,0.2996491803226319,0.32636110148575237,0.3044093992459231,0.3057376967603696,0.30420054404813596,0.31113568260291163,0.32058200387668323,0.31555404873189774,0.3054804960588527,0.293040971389663,0.3061482556969312,0.3015321289453254,0.2928777130847558,0.3100553707829636,0.3047992271998369,0.3358618911671146,0.30148483661519215,0.30687110470402235,0.28982970984486384,0.3355234595717021,0.30863178410390646,0.2966705254345944,0.3009766707920563,0.30592341338533957,0.2891476707585024,0.3001881057073903,0.2964827267842942,0.3463060524535181,0.34103202839922303,0.3061303795346659,0.2890298931091094,0.3329221800736767,0.28881561806808,0.2963542873177939,0.32812676331565455,0.31342387157058815,0.3178317952944899,0.32297466312711,0.3362363557373717,0.3137407660976184,0.29959466444399896,0.29470879348481754,0.29858678968963154,0.33516871550199456,0.28576782304399995,0.32064960511430585,0.29257679656141306,0.3023601043545147,0.30186378329917085,0.30602085816888136,0.2899348642848644,0.29324003094929646,0.31400544127721025,0.3006440850465322,0.310412882853308,0.310974339177024,0.2839669738480877,0.3104071322189076,0.2891279023812517,0.28981527476765395,0.29700786803018425,0.3047721837538618,0.30462088165679124,0.30823784151521016,0.307815874647274,0.30155198979750497,0.3066924302094779,0.3215576893005742,0.2891735131661728,0.29127731873589896,0.2863471959203992,0.2989415125778455,0.3075060935483791,0.30120991267390446,0.3038892390046545,0.2966674839128999,0.29703868319987564,0.29136286003413453,0.3014005684230399,0.3202980018033772,0.3041328876709152,0.3131571048920464,0.3021418201008167,0.3142573205643879,0.302423918649133,0.3247857066846784,0.3028671648454154,0.2965158786961712,0.29558028295714095,0.3141341884200484,0.3162565885214947,0.3126233023680074,0.3187087556612851,0.2904352074778022,0.2912413790014727,0.322739284409859,0.28870318143533796,0.3111052446790497,0.32929010992861396,0.3010925855803188,0.30506774068855924,0.29218984769882145,0.3233452705552974,0.3158047676162781,0.30652194730511323,0.30981241539654325,0.32701106664555757,0.29623133260526113,0.31427322313881173,0.30112089841924217,0.30067195979512834,0.31022044273884924,0.3081046282891737,0.30494000269001087,0.30612920995546317,0.3326820265710863,0.29523561962853717,0.3109261832254604,0.30449794377208333,0.29603017157782724,0.3181069447273186,0.29573017822286685,0.34092113504601895,0.2941334212782424,0.3121439379026857,0.2932421474505447,0.31825503460853766,0.3185310274847475,0.3083389526521375,0.2968272872437751,0.325380542469175,0.2922159106362775,0.29130983762759,0.3038289645711945,0.29175148830522746,0.33540574949814156,0.32357915085451067,0.3044365677002829,0.3155872354310455,0.3012133249126655,0.2995119653073313,0.31698169278376587,0.2974625264248276,0.31244382747311,0.29820323887844086,0.28369715456015837,0.29822651674892803,0.29662195750775766,0.2942735582321988,0.30430106952160896,0.32279170379111155,0.3160012455819067,0.3075123755544171,0.3004318922488455,0.3119470716311132,0.30587457461496326,0.30641587276355653,0.2960020415836247,0.30524407781983465,0.3090012695802639,0.31177722657738693,0.3027579903791225,0.2855960026212728,0.29579263618745943,0.3272052008085238,0.30894836756256977,0.28800847711455757,0.2918785716958149,0.2894617870418469,0.30134887436743185,0.3027325999775672,0.30516284929636944,0.323476474473146,0.29616982506372996,0.297893420691992,0.30360962933241786,0.2959559590829261,0.31085390985914507,0.29890938745008117,0.3095600609538133,0.2983673263550454,0.2955773517364041,0.28222222263293556,0.30554240867400895,0.30326897645857565,0.29072123721590015,0.3074937964716487,0.30269739915131877,0.29936698403530954,0.3656416882693444,0.3069083802548924,0.2925090598291072,0.28773163480931097,0.30131954870471817,0.31081623301076944,0.30121880012525165,0.31051974452585723,0.29589572088129235,0.2972509861032029,0.3004611006664795,0.3022839327640402,0.3123935064542098,0.29572110155129655,0.3028599050443739,0.2954938299774924,0.3109081453497131,0.3180988320821806,0.2894714594612489,0.29747779582463796,0.2907441843224201,0.2879369970747617,0.33152510538756297,0.29948824954026154,0.30368916045054783,0.3042140420802596,0.30242753576562054,0.2962055454726624,0.2997788072634235,0.3264004301764447,0.2986819776965287,0.31104969166422664,0.301942006136388,0.3045387527760451,0.30522594150416266,0.29425856709428555,0.3189054523637562,0.3101631161005212,0.301682905789268,0.3119302216921916,0.29473533789348966,0.2849818291046379,0.2980477999420773,0.29694607371634507,0.2949537752283245,0.2925772623800464,0.3177838040264811,0.29499459229703084,0.3146519949697283,0.2978175923773604,0.31485438261192367,0.3049327546946591,0.2964525357227622,0.3064256191643134,0.3116697582682001,0.30239026968638916,0.2916202676227183,0.29719621835345345,0.3117302693480783,0.29462697735624654,0.2943910425849146,0.31561119648061187,0.2965428467525979,0.28934906052802356,0.31470633548487664,0.2981376337864683,0.2988322196446485,0.31163166311000323,0.3036609727017107,0.3094196564335691,0.29370601105738947,0.30166427036484533,0.31773213580166804,0.29001203806017023,0.29948003324840666,0.2903928535716864,0.3292036260564791,0.33109940989882214,0.28835631411174556,0.28920921925090803,0.30759750374009676,0.29270671687095046,0.3117859668215578,0.3145775381895293,0.30190163286759203,0.2887447126274348,0.298766962205209,0.33085145344526723,0.2856973107306574,0.30279792625407626,0.2995689971208311,0.3269864802707451,0.2926570786944819,0.3189271596880875,0.3069805629575705,0.32685581417288834,0.3234540734980196,0.3037357453857606,0.3035922672030639,0.3050580821545658,0.3000085398607158,0.30430735073716264,0.29782174778737325,0.32768457914895355,0.3040654254579938,0.2880292319146614,0.3045047805868901,0.30219691595615356,0.32717892990924946,0.29451968856078736,0.3016156872849566,0.3335305827687277,0.29092777065761094,0.2867394652542091,0.29179934426693643,0.30138013174554146,0.31573824739705275,0.294072721414132,0.30056128086345646,0.29930572346590906,0.3365037076206939,0.3093419233683299,0.3208612389976622,0.2901373596586268,0.30137357708000445,0.2997628140550114,0.3013732971662709,0.2940913247790093,0.374028467303402,0.29486208547674303,0.29923981901693847,0.2914398814368734,0.31090820674827097,0.3001794291818162,0.289886642508439,0.33660161968914143,0.2931948605651675,0.29164465551526897,0.312160314252252,0.29778609684493346,0.29948821811865795,0.32075383636932014,0.30754763875808944,0.2873158420061616,0.3008206278306664,0.29717718334718757,0.30391006281690686,0.30342288854030525,0.31688096483026357,0.3019788903991827,0.29787408904999674,0.3073797349729057,0.29192143850733876,0.305073700834423,0.30593951490961946,0.31825387633723945,0.29937970707660344,0.3063494693965796,0.32781472266760064,0.3100922963574825,0.3213460228757913,0.2918667071213605,0.2978689989159497,0.32708702240235127,0.3024855726774709,0.29112545397357825,0.3098290215971401,0.30118549221556534,0.30278189413526185,0.3128775074336544,0.31023891230976747,0.29611627768292875,0.32751827021476315,0.29103197164629413,0.29349512906567066,0.32020918249993013,0.2900645102931268,0.31990227779097835,0.2962749711666621,0.3458295345668653,0.2932185058996534,0.29046142937262837,0.2999084326239846,0.2932948918856038,0.2992292879646937,0.302058329112524,0.30857694053812157,0.301752705439278,0.31058317368596955,0.30668601296460934,0.3019547564244068,0.3013604726121414,0.28999817984829446,0.3089833040229047,0.3021864869506064,0.2978657292805994,0.31271114625952456,0.2976781355817025,0.31440525238420547,0.29305309666734153,0.2953696924986487,0.31051763658088977,0.31384114070940805,0.3058934849373819,0.3063393589730611,0.3097997217827152,0.29604529945546715,0.3301504444828354,0.28441464623843066,0.294625068978418,0.29131890036025854,0.30499158646413677,0.3053551257224415,0.28935980612367046,0.2953530387654197,0.2947379817340469,0.30535630500692773,0.2923024899137254,0.3076247616408434,0.287467050339278,0.33696480442844207,0.3237537438516259,0.2995303115952052,0.3226528881187056,0.32944546149049525,0.29886050324663616,0.3042672250231578,0.33494224476393675,0.29778271448699795,0.30749150779738027,0.3157942038881053,0.2977429928156897,0.2881753098162075,0.29491339387001136,0.3092821818013355,0.30041632310225075,0.3050130801933585,0.2878299004950634
9,0.302162074675168,0.29428876364806605,0.32581680141871966,0.30688193986753276,0.29457906739832673,0.28643807174944985,0.3112048832465938,0.319647724973712,0.3015036235130015,0.3087573839386127,0.2936642948937295,0.3034904431450969,0.2917360280434395,0.30148725770772805,0.294856555547936,0.28756385287476216,0.30074844648972016,0.3241392604854552,0.295623956108787,0.31841376393148846,0.3162217959606612,0.3037603558509755,0.315742327204115,0.2885037496302483,0.30251534134746977,0.2997373489738061,0.3362883798021789,0.29029951853166824,0.3096625102439168,0.30271185821712177,0.3286442065249181,0.2990215629194959,0.29715174362001706,0.3106405569009308,0.31443719374851226,0.2866951779210224,0.2957573998325905,0.34312042369286966,0.2966982954237741,0.29110256671971335,0.296290386764227,0.2812102366867033,0.30356418198099894,0.2945371916509535,0.31616920861285713,0.2879916280637027,0.29468082110985483,0.29524313452850964,0.2986425915239349,0.29190571265056847,0.30327027816955054,0.3136293733472525,0.31647183046622884,0.29538854692037353,0.3014494811484691,0.2974155653086519,0.3237295571097167,0.29904475615077547,0.3381397118504124,0.3107439871080554,0.3088442620824966,0.3037312466091222,0.32661050866977553,0.3003984933299553,0.2953323745688968,0.3036582528640657,0.30540984043790853,0.3011929277107429,0.2968773053624335,0.30724137112719363,0.30253581611541297,0.2940688429639368,0.2987146076205044,0.29563296505739994,0.34103853622637825,0.3021836482096847,0.31447387225528745,0.30022493041987375,0.3117406283254722,0.30299644120631025,0.33519963155427385,0.3031053770880979,0.29953693614936017,0.301322887602577,0.35917806072332803,0.31858090602889827,0.2965182208267324,0.2992644185869686,0.3230295225956069,0.28807161610712234,0.3027665485746723,0.2962470044532829,0.3241928030844335,0.295994477569791,0.29362975595233015,0.2931655494765337,0.30888810028047364,0.3072843685562292,0.29801451967125486,0.2858936461312428,0.3008811593070641,0.33246979149370975,0.3132321852744194,0.29192475321546657,0.3299449016238655,0.3103376777360511,0.2919901051056167,0.3083461570122866,0.3164414438662786,0.294283816765537,0.31120021066033277,0.31182753844702693,0.3201542286401781,0.30497823693322357,0.29960761913412004,0.30551653793959715,0.36458081581740254,0.3007890577515305,0.3136670406822949,0.2958144775639235,0.3026213519786366,0.3012436890161241,0.30404427578006904,0.2818561303329592,0.2934350116605925,0.3186745337244137,0.2854668725791595,0.3090889448599398,0.32151279276807204,0.2919775971286215,0.31712023788840116,0.2929983611099851,0.2895324144113921,0.2971821768018178,0.3043443619334823,0.30718302188165364,0.3036177163831311,0.31158232767227834,0.2895219773978211,0.2941368852066443,0.3159066406568778,0.29116709665995394,0.3031648884282211,0.2927407341559899,0.3018907424601361,0.335513642002502,0.30422784749643783,0.31279822925268796,0.29305636710197436,0.30597507322155976,0.2891296176002916,0.3008346186325183,0.3184722914078945,0.2893637069022665,0.30381580789783635,0.33880803004246435,0.30295322159374616,0.2936846406097479,0.33253731958119964,0.3089770825178731,0.2957560555633231,0.2986414018719977,0.3145419139207844,0.32217746804403813,0.3117188254735272,0.31249235811172177,0.2913168798690256,0.2956153985969604,0.31463801052526363,0.324579057519187,0.2945492874459514,0.3020825371392206,0.29967678193882347,0.31844523603195135,0.30551743738137355,0.3085317300971641,0.31527293281440333,0.2918683759041546,0.2961119102354675,0.3138278967325588,0.28945696611590976,0.3012865926472781,0.31014841081011363,0.294433148469552,0.3222977097716316,0.29605137068252035,0.3195734281174513,0.28556735621814705,0.31431482720328463,0.29463571274201306,0.315699757767179,0.3112348603418666,0.29732242980184087,0.31876334459353617,0.29934063830551855,0.315551696756203,0.30722249743758206,0.318977816890975,0.31230235374937554,0.3266719011729849,0.3199929756514117,0.3067260676373748,0.3176852119881747,0.3069482159171465,0.2897096864322711,0.2970381591101226,0.29981565635122187,0.29726775191191973,0.3295590156991683,0.3021674832345743,0.31705295010932366,0.30182495225293526,0.29360043319368606,0.30421736739877414,0.33438995113458353,0.2874753398320625,0.2958557326787615,0.2918906337785926,0.30560531780455347,0.30698903308743064,0.30334664328323135,0.3063783773922897,0.3074554523669405,0.33367819509613966,0.3242535657982099,0.2969490151810161,0.29496839312063733,0.29739899360106586,0.30915747672705257,0.293986090687449,0.3086760682448705,0.2908066198700549,0.3060608852169506,0.3047269658600765,0.29755372323349827,0.2851545924510021,0.3068258404185107,0.2993332530022334,0.3045479084218555,0.2886487722653974,0.2939151577596466,0.2987883285783127,0.29736811340807423,0.2941118348570637,0.29519497188562605,0.30167298165995104,0.30679599302377614,0.3043979359286635,0.2993432162450388,0.2933495507443113,0.3121870171117811,0.3049024568299871,0.3137659903634602,0.29091994749567374,0.30173202049920694,0.28469217892021237,0.30187654343206227,0.29753406340821453,0.300066224573983,0.312406770163405,0.2932290791781886,0.29892063040614514,0.3119204152968483,0.31859448276207397,0.28708355275143715,0.3033505164239017,0.3039831449423153,0.3103156924605986,0.3684446386462147,0.30310646207779934,0.30269381781742655,0.30204934341581896,0.29721289742259993,0.30311621846251346,0.35146521907419725,0.30579325314641764,0.3379275794619484,0.2998666852286641,0.30420101950313677,0.32112984103867265,0.30517824322192927,0.29500609157374313,0.297756936403058,0.29621876478342946,0.29112832007137696,0.31330271182181363,0.3089822832974055,0.3285399303636355,0.29674510623202477,0.3068934057826701,0.29665028461376847,0.3069805394851133,0.2899810529347662,0.2886426757013857,0.2939458384128103,0.36184823102763525,0.30264211681605346,0.28866876028917543,0.3088706832032811,0.3000175664409194,0.30145450563301013,0.3469426036606496,0.28948172695399965,0.29189127128855846,0.30103125956348753,0.288030488286854,0.34746524469376544,0.2914665170473364,0.2973396339992681,0.2978703992108406,0.30520315279171917,0.294028132824453,0.3280353449558962,0.34397332251616597,0.2990385149204289,0.30676107101642436,0.29338227922525534,0.30875150035087373,0.29578287857541147,0.29483027248076504,0.31660403972354445,0.3022031334774212,0.29987911991244376,0.3190192277955763,0.2978576028112278,0.3005637447043314,0.3111554723094646,0.2930453861266753,0.2957475993531701,0.30887136153457695,0.3259535064444429,0.298322402522747,0.29714063265504775,0.30079955947675135,0.2935980383483528,0.29823655072911825,0.3090028932299853,0.3059867986897071,0.316510633297888,0.296355951792432,0.29352189484287605,0.29604502477599665,0.31932090226719956,0.30615796185132593,0.30702056461841165,0.3153243242931793,0.29036901079537747,0.30830894941370024,0.3061790790677098,0.295679214680196,0.3068127767372599,0.28872131237183984,0.3270893952483236,0.3268185806363682,0.2928062306493343,0.361815804666637,0.2930489707537386,0.30617953323619995,0.30354574876003904,0.2996335294011,0.313395262501507,0.31324593060121964,0.31089558972649833,0.31151827371008795,0.2978524924785483,0.341084107712145,0.29188234178809364,0.28658769092988434,0.30901412237550624,0.29604724575312114,0.3031846171573972,0.28632364331714877,0.3160338208794911,0.3043988105971525,0.2913770424447185,0.2858286369609121,0.2988842730824974,0.2935958897030181,0.32424162471536994,0.2975737996782598,0.3086387324339074,0.29748694421550714,0.295373654515258,0.31274382313229715,0.333308513551439,0.29897095858834144,0.29428606485798475,0.2905657009743347,0.2856311753405985,0.28735866917871566,0.34954481437460877,0.3045302215244887,0.32191771680437875,0.306943563675179,0.31252236754082335,0.29594863455029763,0.311812765298427,0.3136915517486106,0.2993224582381807,0.29417147054601384,0.30632047571746657,0.2922271228359018,0.3076864170043711,0.29902578545218517,0.2923165747239428,0.30947280535396177,0.2940772789181675,0.312770226349637,0.2979229215425544,0.2949181279711729,0.29469130138985455,0.28763379102211317,0.2901963838416237,0.2917021856053276,0.2883227397569529,0.3046534990362483,0.3012232012177998,0.310938810465054,0.3084493077459359,0.29038374437384473,0.2996600271938157,0.29339423743981496,0.331452581557253,0.3036701905559225,0.3014477337739696,0.2993373015769313,0.2938999835567923,0.29376500225185087,0.31143943392197715,0.29031345101957196,0.3115957877501802,0.3077070929867024,0.30810595187121625,0.2935208832416934,0.306221655777605,0.29421121721862786,0.31896714661522935,0.29314148088509995,0.3128630738404215,0.3016714678453685,0.3066199466851137,0.30857926591748397,0.3095568318479626,0.2872494512883073,0.29566488826610715,0.302961311845548,0.2967945112146769,0.31845680016061484,0.3048972553208197,0.29341380536490147,0.3030376443169226,0.31026716812465077,0.32110015587948626,0.30544617098749866,0.294003189060863,0.3164765157349094,0.3071327617157132,0.30994008618127256,0.30712014194665394,0.32318029589142105,0.3092724064536016,0.29636847932519583,0.29207048378746575,0.31515643904925295,0.3055683010428182,0.3104343927483599,0.3067360373553628,0.31418675846847316,0.3021381452412849,0.3220148301749492,0.2908853859049746,0.2931190405845472,0.3237085688450911,0.2899057232138554,0.29127057416546204,0.2939970245231534,0.29983272136168704,0.30046978269650454,0.3123992881959382,0.30124211385658334,0.2864783354245931,0.287398933739426,0.31369926518143065,0.30822239508528826,0.29899834357613,0.2937867352582241,0.32457949363663285,0.3118226848751969,0.30491864509840294,0.32501810186832575,0.3093777987213494,0.2880172831454214,0.29148123714289353,0.34237243594448696,0.2872721839198492,0.3026627418525386,0.308021737274658,0.3225975983312113,0.3268767663139487,0.3067953072571013
10,0.28957136364338754,0.3083953081344117,0.3535888948434813,0.3332250712129803,0.2934460054237156,0.2895367898646254,0.36285853226972115,0.3110423512543283,0.29499365410813444,0.3168361464996212,0.29227056864162015,0.3037386181723901,0.3013961072777541,0.29426363215007345,0.297544823464024,0.2911352860017711,0.3030617292348163,0.3296524097918166,0.2999694129815693,0.34214054810118183,0.3016387953186413,0.29748550746666996,0.3046809965697129,0.28926791856355427,0.29775779390785234,0.2973225047786915,0.3218321026332546,0.2893991770288683,0.3229422555272581,0.3109512124055423,0.2958826966867221,0.2974457305487912,0.30168301239188594,0.3295401582608646,0.29683032108092794,0.3110253233258792,0.2865783972353357,0.317136909684823,0.29828820528938915,0.2881561206786561,0.3044006809240703,0.2855475193827277,0.29445850297147613,0.29888127845525514,0.3127282687778369,0.3098580736963016,0.2845159377546858,0.30184897786069625,0.31891455235129473,0.2913306521798671,0.30575739757704307,0.2862230407011858,0.34690554866809975,0.30455753068347236,0.28929057594331314,0.29236912728236325,0.3256627402449105,0.3031814160312257,0.34466422373255157,0.31057359879761115,0.31510407971142773,0.3248571975842337,0.2948332695297211,0.3045573931205582,0.30222728440060515,0.2951604874744793,0.30112321581128476,0.31749642306653236,0.3163923315820626,0.31234694969957666,0.2917101523744553,0.3065276989340608,0.2915480692714758,0.2913856119925101,0.3134395184770543,0.32366571796576415,0.3173893668046249,0.2890255846385789,0.3087142500587882,0.30193713487273566,0.3088253980810106,0.3205711745476707,0.29983627297651394,0.28720273765513593,0.31441608273898625,0.3086947062873232,0.2877815745427995,0.29802165328792096,0.3202068609159814,0.2938062193181493,0.31327845155833456,0.28997450451809537,0.2980555226501268,0.3132372387113952,0.3041964622898896,0.30144731727764373,0.3058719450146064,0.29378999735069977,0.31701642505017097,0.28701841392031163,0.3167444652915391,0.32595977582863295,0.3018924898868742,0.29108059329711217,0.33248545883420405,0.31046631294621185,0.28998078182040044,0.3212714511824658,0.3082053781898012,0.29256390749684136,0.3076420173185898,0.2951785173481682,0.31046932546914163,0.2896145121748208,0.29443247210123036,0.3090826242770389,0.3481478519364361,0.2991325419731832,0.30889832466907896,0.3160416859395109,0.287711164784055,0.28861996020934555,0.2864876629630307,0.28778953799352175,0.3174902045953834,0.30337360314283235,0.317706797132729,0.3282813746159481,0.31595640140793535,0.295906392388401,0.31230898318604106,0.28874052768940345,0.2900636790676566,0.29585411952706103,0.31475492274229927,0.3070284965211676,0.3176901986912112,0.33783432070881386,0.31113985923256715,0.3104949987717846,0.29132663442871365,0.2969717992819925,0.30053396793631604,0.29701969957555446,0.29478456555558913,0.33116050199498726,0.3014437037001218,0.30696478441238634,0.2879100659459405,0.30557422789846544,0.29867878380914586,0.3289588057309988,0.30799438915700905,0.29511480624858993,0.3150010840040264,0.3271912439059729,0.302050360463789,0.2960701657330154,0.31681228207146883,0.3144622003809169,0.28736777564952853,0.3403124799427068,0.323215827031087,0.3026919796889409,0.3064416528890236,0.29789671048554905,0.312461473220875,0.28981991849966066,0.3288135204260511,0.30672160477590366,0.28887997212985334,0.3040953855614055,0.30090089000184617,0.3123641658329494,0.2982315962257636,0.2991116792889089,0.31494485486199764,0.3110624328386705,0.29240943474299785,0.3010707013680678,0.2914235238659998,0.30390966364532257,0.3012874155385451,0.2965722422127204,0.300343046938346,0.29828071802874884,0.3168075402929918,0.3069246231349244,0.3064855598490851,0.30656985401078596,0.3259718510096714,0.2990117055926126,0.2854909867735437,0.3088567684633792,0.29689566183393534,0.2955778552469855,0.3054723142684459,0.30735388726331564,0.28977237805476647,0.3441610645205432,0.3269329011435322,0.2960341898965841,0.32224065424236253,0.2979992598866774,0.2941605736635114,0.2887115652199753,0.2897041050110819,0.2908587525343408,0.32100930322441623,0.3049901629149745,0.3021254922520167,0.3103927734112518,0.30529610574199567,0.30324839109394963,0.3353697549440933,0.29578656083333593,0.3121914401583971,0.2967556297736058,0.29405473622947026,0.2927574944830857,0.31804149280907607,0.29202369362707925,0.30022533558270603,0.32809235754421523,0.31230109484409374,0.2930553307088307,0.29000802301350975,0.2974179448258472,0.3179931111657512,0.29239399674002503,0.3005336917237896,0.2925184341484053,0.3109865228013798,0.303155858938831,0.30454539201204767,0.2890169442321105,0.3106052011019471,0.2915085353564458,0.3157050398394052,0.2920085464796719,0.29185969636589815,0.2986731397004881,0.30643850284773927,0.2941804216030925,0.28978951778067247,0.2996356972630444,0.2915607833814567,0.29620177001668285,0.3037352808530091,0.2954493976619343,0.31046432329115836,0.3088413015624375,0.31124479531713795,0.30199737862462667,0.2932756428518434,0.2814961432493181,0.308021160476956,0.3072718232707984,0.28359413899508223,0.2930805155762679,0.304308769244265,0.3000826696501468,0.303232804305337,0.31893718462499393,0.28705524360493095,0.2931970435581747,0.30822940991209435,0.3307130409861731,0.3547112710981769,0.2866695088052929,0.29404935715844316,0.31129070899457767,0.29248654828906606,0.290647943584275,0.33878239350083617,0.30505589045452935,0.3235939139714606,0.3005575824948984,0.2856321130580764,0.3132336259368824,0.2966150706548968,0.3016766167537256,0.29924400241137666,0.2922588919302426,0.306703601840235,0.31946840232576873,0.2985414843639952,0.30091565493299527,0.3033398534984387,0.3071268017809443,0.30758554466465615,0.31416868220619104,0.2909436861849372,0.2986344874552016,0.29691870505412477,0.3457586631645737,0.3104082721759259,0.28940908745431293,0.3275357059010437,0.3018735167860334,0.2997955104498512,0.3386616762988989,0.2961540979384137,0.29436371420844465,0.3143369575124137,0.30012843714798937,0.31545165393740965,0.2887901174422628,0.30827095599223014,0.34383353952296897,0.3067789695428462,0.28469395587328905,0.3226741316136917,0.3185214294984749,0.30788854078010786,0.32250843740223945,0.29399655123687557,0.2975355455471239,0.2895678979338335,0.2968022984438691,0.3001532007684226,0.2871467418269084,0.30585911872692056,0.3171636268988376,0.325856190953803,0.2930411350778157,0.3578103537596199,0.30663241687231124,0.30499885142008265,0.2984249196856758,0.3073077188756391,0.294210824333604,0.28479782302938295,0.3244958241414391,0.31497160286823794,0.3036662739164394,0.3111056505717536,0.29557398695852033,0.3190449117267874,0.3159557069459144,0.29952259103315704,0.2955207330064138,0.31233585654423185,0.28813295257937,0.3233049368028483,0.29900513785029104,0.2884732657150855,0.291347994270133,0.3024126344735768,0.29348807026550794,0.2902291440638068,0.28418720085706994,0.3034600169339261,0.3086046151341543,0.29985882609463504,0.3401547162892579,0.2985358976046275,0.32674578844361785,0.3007321456198606,0.3174267942679093,0.3077019222250783,0.31293459621456093,0.30862430254775364,0.326607210952576,0.29754374280774026,0.3258804523081228,0.30795723215489784,0.286736905008072,0.308418605758076,0.29268885465859495,0.3171960123766976,0.29124702071435243,0.29678945452579086,0.3024375234517327,0.2858675272479155,0.2895253207307168,0.30370800250545327,0.29885606802613796,0.34091281133886914,0.3136712934507505,0.3158322258865424,0.28995097984323265,0.3189565970700438,0.31976077640249534,0.3078831657404143,0.3016415245446279,0.3118050275622818,0.29197235810891686,0.28511989259682846,0.2996012774874677,0.3466737904839907,0.3051473269351064,0.2978401376283785,0.31221842371493447,0.3046598986168466,0.30812871803944064,0.29700839533610135,0.3211277338785424,0.28793368955061727,0.3036749239793174,0.30881873266483517,0.319773171060575,0.2928902571413302,0.31167122356287225,0.3029514103398433,0.3223441243860891,0.29729417057196955,0.3150703354030763,0.33174608801180694,0.29691034878455425,0.29902865223977787,0.28728252713590824,0.30155009511899394,0.3041660611717423,0.28351811397075516,0.293873811441174,0.3007815134482208,0.31170264869817166,0.30622425936504205,0.30062534430701493,0.31155396322073936,0.2998715947185236,0.3208585708675268,0.29965599945756394,0.3007187011909862,0.3183619819591425,0.29945623024560863,0.29548927309628265,0.3215145979191086,0.2997682488905753,0.32289621970758997,0.31256148335646483,0.3453105164667113,0.3007703461805876,0.31028889542214144,0.29290057570672196,0.30324832260353235,0.3086986925213322,0.3069860671629067,0.3173983809090491,0.336054765954683,0.3118278588849485,0.29119108029726154,0.2935477180920216,0.30209910169988585,0.29118322048043765,0.30382338374921275,0.30694518859505393,0.3509390372481688,0.3045867594888937,0.32973080064433086,0.30096418320502405,0.2968648745511943,0.31941431787481955,0.28782621479313686,0.3236902970670774,0.2979156443093175,0.2996528173905226,0.3233799337166392,0.3051033049496076,0.2932363184331258,0.2971834472861605,0.29548910939852635,0.294371550824466,0.33783235604921824,0.32170372978639666,0.29916526604952887,0.3105473734023945,0.3018997868998069,0.33346959196906323,0.3116944689423924,0.31876680719787776,0.30819969606440784,0.30884856533772137,0.31397522407782963,0.30257643761986264,0.2984663532756077,0.292458877970686,0.3056585378846268,0.3016070254083302,0.29246911292936945,0.29325169922357436,0.3153899899663894,0.29584713161111253,0.3135155337397291,0.2918565590659214,0.3318881449155122,0.30249656665986613,0.29404811070232856,0.3214424800318809,0.3000010180399863,0.2961710058632302,0.2964411754125332,0.29751008454587347,0.3034367891507685,0.2934429319184467,0.3105178033019138,0.29589253208323896,0.313437073563927,0.29220870685712785
