t,rep_0,rep_1,rep_2,rep_3,rep_4,rep_5,rep_6,rep_7,rep_8,rep_9,rep_10,rep_11,rep_12,rep_13,rep_14,rep_15,rep_16,rep_17,rep_18,rep_19,rep_20,rep_21,rep_22,rep_23,rep_24,rep_25,rep_26,rep_27,rep_28,rep_29,rep_30,rep_31,rep_32,rep_33,rep_34,rep_35,rep_36,rep_37,rep_38,rep_39,rep_40,rep_41,rep_42,rep_43,rep_44,rep_45,rep_46,rep_47,rep_48,rep_49,rep_50,rep_51,rep_52,rep_53,rep_54,rep_55,rep_56,rep_57,rep_58,rep_59,rep_60,rep_61,rep_62,rep_63,rep_64,rep_65,rep_66,rep_67,rep_68,rep_69,rep_70,rep_71,rep_72,rep_73,rep_74,rep_75,rep_76,rep_77,rep_78,rep_79,rep_80,rep_81,rep_82,rep_83,rep_84,rep_85,rep_86,rep_87,rep_88,rep_89,rep_90,rep_91,rep_92,rep_93,rep_94,rep_95,rep_96,rep_97,rep_98,rep_99,rep_100,rep_101,rep_102,rep_103,rep_104,rep_105,rep_106,rep_107,rep_108,rep_109,rep_110,rep_111,rep_112,rep_113,rep_114,rep_115,rep_116,rep_117,rep_118,rep_119,rep_120,rep_121,rep_122,rep_123,rep_124,rep_125,rep_126,rep_127,rep_128,rep_129,rep_130,rep_131,rep_132,rep_133,rep_134,rep_135,rep_136,rep_137,rep_138,rep_139,rep_140,rep_141,rep_142,rep_143,rep_144,rep_145,rep_146,rep_147,rep_148,rep_149,rep_150,rep_151,rep_152,rep_153,rep_154,rep_155,rep_156,rep_157,rep_158,rep_159,rep_160,rep_161,rep_162,rep_163,rep_164,rep_165,rep_166,rep_167,rep_168,rep_169,rep_170,rep_171,rep_172,rep_173,rep_174,rep_175,rep_176,rep_177,rep_178,rep_179,rep_180,rep_181,rep_182,rep_183,rep_184,rep_185,rep_186,rep_187,rep_188,rep_189,rep_190,rep_191,rep_192,rep_193,rep_194,rep_195,rep_196,rep_197,rep_198,rep_199,rep_200,rep_201,rep_202,rep_203,rep_204,rep_205,rep_206,rep_207,rep_208,rep_209,rep_210,rep_211,rep_212,rep_213,rep_214,rep_215,rep_216,rep_217,rep_218,rep_219,rep_220,rep_221,rep_222,rep_223,rep_224,rep_225,rep_226,rep_227,rep_228,rep_229,rep_230,rep_231,rep_232,rep_233,rep_234,rep_235,rep_236,rep_237,rep_238,rep_239,rep_240,rep_241,rep_242,rep_243,rep_244,rep_245,rep_246,rep_247,rep_248,rep_249,rep_250,rep_251,rep_252,rep_253,rep_254,rep_255,rep_256,rep_257,rep_258,rep_259,rep_260,rep_261,rep_262,rep_263,rep_264,rep_265,rep_266,rep_267,rep_268,rep_269,rep_270,rep_271,rep_272,rep_273,rep_274,rep_275,rep_276,rep_277,rep_278,rep_279,rep_280,rep_281,rep_282,rep_283,rep_284,rep_285,rep_286,rep_287,rep_288,rep_289,rep_290,rep_291,rep_292,rep_293,rep_294,rep_295,rep_296,rep_297,rep_298,rep_299,rep_300,rep_301,rep_302,rep_303,rep_304,rep_305,rep_306,rep_307,rep_308,rep_309,rep_310,rep_311,rep_312,rep_313,rep_314,rep_315,rep_316,rep_317,rep_318,rep_319,rep_320,rep_321,rep_322,rep_323,rep_324,rep_325,rep_326,rep_327,rep_328,rep_329,rep_330,rep_331,rep_332,rep_333,rep_334,rep_335,rep_336,rep_337,rep_338,rep_339,rep_340,rep_341,rep_342,rep_343,rep_344,rep_345,rep_346,rep_347,rep_348,rep_349,rep_350,rep_351,rep_352,rep_353,rep_354,rep_355,rep_356,rep_357,rep_358,rep_359,rep_360,rep_361,rep_362,rep_363,rep_364,rep_365,rep_366,rep_367,rep_368,rep_369,rep_370,rep_371,rep_372,rep_373,rep_374,rep_375,rep_376,rep_377,rep_378,rep_379,rep_380,rep_381,rep_382,rep_383,rep_384,rep_385,rep_386,rep_387,rep_388,rep_389,rep_390,rep_391,rep_392,rep_393,rep_394,rep_395,rep_396,rep_397,rep_398,rep_399,rep_400,rep_401,rep_402,rep_403,rep_404,rep_405,rep_406,rep_407,rep_408,rep_409,rep_410,rep_411,rep_412,rep_413,rep_414,rep_415,rep_416,rep_417,rep_418,rep_419,rep_420,rep_421,rep_422,rep_423,rep_424,rep_425,rep_426,rep_427,rep_428,rep_429,rep_430,rep_431,rep_432,rep_433,rep_434,rep_435,rep_436,rep_437,rep_438,rep_439,rep_440,rep_441,rep_442,rep_443,rep_444,rep_445,rep_446,rep_447,rep_448,rep_449,rep_450,rep_451,rep_452,rep_453,rep_454,rep_455,rep_456,rep_457,rep_458,rep_459,rep_460,rep_461,rep_462,rep_463,rep_464,rep_465,rep_466,rep_467,rep_468,rep_469,rep_470,rep_471,rep_472,rep_473,rep_474,rep_475,rep_476,rep_477,rep_478,rep_479,rep_480,rep_481,rep_482,rep_483,rep_484,rep_485,rep_486,rep_487,rep_488,rep_489,rep_490,rep_491,rep_492,rep_493,rep_494,rep_495,rep_496,rep_497,rep_498,rep_499
0,0.3443585193965762,0.31182902507677185,0.3193252072593114,0.3136218498979751,0.2979514692577127,0.30786549791813933,0.2991245757667909,0.3032462204810642,0.3722899589721675,0.32417564570635793,0.31191882035177454,0.3239142226474623,0.30821263092076295,0.30717440720124844,0.3149600695743457,0.33059299467834646,0.31357091272721205,0.30086692190590775,0.30451758998538525,0.3450418252632351,0.3156447004584367,0.300087422555342,0.3385266405194984,0.32739021096268006,0.3235814430830275,0.3391566086287656,0.3084588150768868,0.3003823042704505,0.31965664821053413,0.3072554795184722,0.29521211548866655,0.2994197364826342,0.3195732729905745,0.33969588550522845,0.3155119270922638,0.34038422834239446,0.31751511192111825,0.32910824489654533,0.3090587937219078,0.3292026604999603,0.31186530936635026,0.3099427771158891,0.3424108632898902,0.309245510913645,0.3273872709797525,0.3058293059438519,0.3606458652070025,0.3108620513093844,0.3057104888981939,0.3292840888303639,0.3274122049810818,0.3278653671118659,0.347960198202251,0.3090494551221827,0.3290257697878204,0.32890897192673474,0.3202446690004209,0.3252592208568911,0.3153372321309391,0.33155037033858614,0.30700840571677684,0.3226820171944044,0.3557633797918832,0.309034413289643,0.3083110016076986,0.3167454417641053,0.3590571295719523,0.29119323310481626,0.3251843666398934,0.3070506545777942,0.2997326717198655,0.3604614045810642,0.3362553605697969,0.29479949425831886,0.3321095871206162,0.31391702086336293,0.3111666981552627,0.3201419055824978,0.31338855837122653,0.32248699840085415,0.3047070384590564,0.3582839500604081,0.37278592332071797,0.3424225295276132,0.33091687163972155,0.3151932428226097,0.31264280881058737,0.29974076791240883,0.3156088470144134,0.31900365821274873,0.3125577507053286,0.3304759783533938,0.3151968662995332,0.2995020652240797,0.3753320601271473,0.34107755000768986,0.31655499105892926,0.3225386839539509,0.3866845335548721,0.35165578739989684,0.3292440488565155,0.31644386205926345,0.31441133765898055,0.3042637822551918,0.3191066877986751,0.3613474553229302,0.309076478497459,0.3015688261760819,0.353477162950654,0.31908590479772314,0.2993135273486066,0.33401787184380777,0.31143868632772087,0.31955514451284045,0.35580355212404347,0.32041775667092876,0.3740444710866063,0.2946758757679217,0.3252047926602238,0.31786358810471443,0.32309921348479315,0.30399936985365605,0.3447529711797574,0.3257925181025141,0.331421175174898,0.37322533511068623,0.3190651159506731,0.36482714816099326,0.2969763142304084,0.33784494044701924,0.3047022686403566,0.3359773394091367,0.3141362797550763,0.2986719286340121,0.3068911908954116,0.32350129463025984,0.3344416163270293,0.3550215314789697,0.3071157589971953,0.3549105779430804,0.3027226903734872,0.3062750369650686,0.388010363195059,0.2920103023102982,0.3091984144855869,0.3042249334037842,0.33034569373763734,0.380527347561481,0.2909821095703652,0.304392148422027,0.3089617624545207,0.304051860449661,0.3340923513157563,0.3126064254738642,0.3424009919947853,0.3051068491182564,0.3446468245801765,0.30665789228374196,0.3028890523836886,0.32602645804103225,0.3006670778155639,0.3260544251772319,0.3239888157375603,0.31266020318053345,0.3242920947602759,0.3098348459841173,0.3206876310009522,0.312369981380848,0.3188035884467991,0.33284615372589765,0.30976014751827835,0.302808877068996,0.30728465542724925,0.30590834957617224,0.3138928759398646,0.30156586824411014,0.3224899881056432,0.33885157969489776,0.3086509455800709,0.30952057916736264,0.3085131461865184,0.3427555568129389,0.3424477525965652,0.3230607261753116,0.3111748550677313,0.3275690324197446,0.30426732480317376,0.29919741730443217,0.32427727167524883,0.32426840283971764,0.32782405397790476,0.3060661715808619,0.315013225848752,0.299914876410315,0.31632984829565125,0.30516744597374335,0.33304049533138425,0.32290240203416143,0.3109993987829752,0.32770858378292933,0.3042650183612484,0.3096458734146123,0.30559796710004056,0.3110752082649121,0.3029154079461428,0.3286796557443531,0.32689312680536153,0.324044175198842,0.31443900387422674,0.32074004378722365,0.33564201290590406,0.34455772353122827,0.3428600264236694,0.2977082218743466,0.3278212754867852,0.3381411607339638,0.3057281941111626,0.3298414438260426,0.3469018857231485,0.3243749979050917,0.31776379402530897,0.3045465478972922,0.32338011609404244,0.3176460300854934,0.3306793202286079,0.3326973873131773,0.3116498356486307,0.3152176144848315,0.31127659500773197,0.31920783070309283,0.31262852643352773,0.30306056505589796,0.3399955677571286,0.31657377862664926,0.3117454607029759,0.3316473768182457,0.32583211800370204,0.38678531603701605,0.30732887741576576,0.3117393050711786,0.30892945621783974,0.3222256476452964,0.3055301312127606,0.30952545737013915,0.30240427159776634,0.33013292357635554,0.3187721010965303,0.31169580251581,0.32191961095867744,0.3361881107324925,0.31678008318224843,0.3289973710227926,0.29170021176622596,0.3028822455456636,0.3213692240019895,0.3736655490091555,0.2990126845994502,0.2966922611281703,0.3010709491289152,0.2949020498220597,0.31008619761830963,0.32034366106228246,0.32318982314960093,0.32950860369362284,0.32583399670478974,0.3034303008851126,0.32758269218655617,0.32376378706465886,0.31722424489386447,0.3077808995429084,0.35485977694565485,0.3217654049502537,0.32706485432139354,0.3143866376775452,0.32372368193098194,0.3136280693836313,0.3205827363056015,0.3029955432434139,0.29912578880367663,0.3256538252896879,0.3219240705408239,0.3135056918760094,0.3198661481006719,0.33034559934838326,0.3094703571066667,0.33844158966427873,0.32634768597952984,0.31533395124612135,0.31270087238611144,0.3195152971436984,0.3144539800770357,0.36015583511129595,0.31243240456231874,0.3171103201836686,0.3119834530433941,0.30176068549281687,0.32089339226941693,0.3242666102502202,0.3394600631704603,0.3096381347764786,0.3054658206859844,0.31712973020202967,0.32096688926700057,0.32494666574597086,0.3102001535667453,0.33432207785158946,0.3203041405396121,0.30735848116490416,0.30265553043018173,0.3279654645213918,0.3355954851119389,0.32078111500076123,0.3042616951977192,0.31630599777726814,0.3803241242078434,0.3316074689053468,0.32281662332943467,0.2983603857321036,0.31106306876649803,0.2925753303278657,0.33556924751591544,0.3318602734741728,0.3134463479200498,0.31237141307146815,0.33286320528486146,0.30103981507881816,0.32183299138854043,0.2935380342490994,0.3216841341727715,0.3241669083150577,0.3130670844939905,0.32802222366574085,0.2961498635913006,0.3029841861833714,0.2996648858546109,0.30455202023813677,0.31055017682551617,0.32525776358559505,0.3031145141284598,0.32536285508674395,0.3677588343996345,0.3040245585416811,0.2987505617446526,0.32672904571359734,0.3087785047763859,0.3459102916728698,0.30934097704770364,0.30935759551039815,0.3044098461867336,0.31228539315497195,0.2989620266529506,0.3436011497110105,0.32097087541752317,0.31925399938886534,0.3275775378158051,0.3614489022091531,0.33924019703258274,0.30873833927071137,0.3076725466378547,0.3042627529276893,0.2968266221655411,0.31567151541431654,0.35551047734366514,0.31368321418584877,0.30181590421153326,0.3120478813327328,0.31360253002560545,0.31592238492492775,0.29531586348794625,0.31366727326077476,0.3279966181629911,0.33164366650595045,0.32429921011778634,0.32451227701215574,0.3077595099419298,0.33060984233109963,0.3052113463294849,0.3213624147126556,0.340381809398775,0.32445461758656047,0.31884301025151424,0.3044237731053185,0.31170122433160313,0.32026721153196197,0.42567276321078157,0.32003339495518934,0.3189033072570179,0.31358324805958737,0.3223954751667085,0.3033674756269531,0.31829982580015925,0.3224458239326916,0.3012977804041657,0.31101214698792895,0.3178093064960021,0.316483067050478,0.32300509720437887,0.33003959820497475,0.31582795806334174,0.29854972569952365,0.35879653648293464,0.32227530473245203,0.30282391286659616,0.3114077523228708,0.29923010135320005,0.29391449202835307,0.32719891987860183,0.33396843195687276,0.30153114843208884,0.303098929612193,0.30733086905374646,0.31788793640362745,0.33257034459422063,0.3259565381585084,0.29207940114175396,0.3031341979286034,0.31703012516034723,0.34364587691242254,0.3007632283938036,0.30459792396279256,0.30581893510468683,0.3067725827055396,0.3107864262011471,0.3011166890584765,0.3370146186968439,0.3224934672756788,0.33254544306651745,0.34495453207574206,0.3159559548580648,0.3311312139889495,0.31140290323192305,0.3271420887447801,0.3136991643899819,0.318479178921499,0.3059050602690586,0.3436857543517643,0.32096165641114194,0.31839240161733035,0.30759663451529773,0.31325674331137143,0.3242868568974953,0.3038242240802934,0.29287230732255554,0.3243263037444608,0.3251521119011666,0.31436264135056236,0.3128497203342113,0.3290481620374625,0.3067290878144653,0.32639846703515474,0.3029280003922731,0.34021239471860765,0.3144076838218365,0.30489270502588794,0.32761451598808844,0.3118282784564488,0.3398973220916795,0.3105018069887259,0.3347889029853192,0.30259280319275556,0.31275467963732495,0.3296951606882017,0.3419314197499578,0.321420062385251,0.3558110801777233,0.3328444256619006,0.3026646232510072,0.29360424899295556,0.3535769724896871,0.3293056699583307,0.32712393537688805,0.3203097547677352,0.3227586562968757,0.3144115377000722,0.3500446620605983,0.31568628880498206,0.30869807752528733,0.3126776883337551,0.3186973791480646,0.2915536109451985,0.3138845196128436,0.321357703312231,0.3384943906624149,0.3141413597106239,0.3120330251881836,0.2913345299707231,0.30495116548302736,0.2974288353065516,0.30154726391774134,0.3189459784041929,0.32898920642383744,0.3400040744418715,0.31706797340153614,0.31675322102607245,0.2953728628772251,0.32139908384205673,0.3029689677428612,0.3247232552917621,0.3297339769617215,0.2967031426132943
1,0.3399294014057838,0.3591877686073257,0.30096805968297663,0.31452071747008953,0.3434917305903305,0.29198236659518456,0.3326554223543939,0.3332144283180135,0.36690216229275835,0.30400027426423615,0.3156409517217035,0.29900950346672733,0.31241388994930797,0.3066859438391473,0.3041321082065417,0.30604968747067696,0.30411557280073637,0.31354232295128537,0.308408907138848,0.34152254196717113,0.3234595972910588,0.3437051345201788,0.29910372205049773,0.39271461602929847,0.3075809320454383,0.3585167259655083,0.31478906254450656,0.30606779322546307,0.31873773664816013,0.29780843285720104,0.32855130456573434,0.3230326335562598,0.30812567785132466,0.3015015435945486,0.3057257778738164,0.3053319010712789,0.3084328474098985,0.34192018438855026,0.3162714505882332,0.32088958764432407,0.31099510096901095,0.30468933224545486,0.31237128622050747,0.3049204053720006,0.32669689802161134,0.32403329979431145,0.32841247678532703,0.31387958270646943,0.3052978623146159,0.31377332100695265,0.32326831463039774,0.3338268347173918,0.30163277664984156,0.3164010879841185,0.31048559475007254,0.32438652414840125,0.2984512506342263,0.3155641049665646,0.3112035354201974,0.35282521278603196,0.30523351918472136,0.3236987851912074,0.3063912924799458,0.3042258316890051,0.3155346720289981,0.3104840639846719,0.3190140251898424,0.3011309202435563,0.3222271891308083,0.2935121891946183,0.34720991610826174,0.33256907103177313,0.3133069278631333,0.3237024320274088,0.30100206584918204,0.30809531268822854,0.3080587574574675,0.3068075944342755,0.2987858176300113,0.3076308965852897,0.33373795254762956,0.3131287532828419,0.36380810297939786,0.3684081289415645,0.30824129001240486,0.31199522052759654,0.3153557603217267,0.3280822852668213,0.30899707304157326,0.3382756995277781,0.30116673920270937,0.3196605673024358,0.34240031135129434,0.3104065648132103,0.32005216044669316,0.4097931896635786,0.3065599501713754,0.32293205083793375,0.32209848421646614,0.31373423702647163,0.3465090154764972,0.31500498279303707,0.31857782739589563,0.3232021494332116,0.32609581561984224,0.30722549973433577,0.3621650962689834,0.29966059514299404,0.3232896079832327,0.30740327857737937,0.3079041021824402,0.3298617874887389,0.3361250229633911,0.2988704355120397,0.31451002965431807,0.34188276866398515,0.36165735506912966,0.3319872668534086,0.30894119243281243,0.3370845049294505,0.3032577105445137,0.3014245034944779,0.2940180705588256,0.30474974169903657,0.31016437834317745,0.31710724512733085,0.31584903547528403,0.34192543015256915,0.326755410905495,0.30457663422365044,0.30312592799224003,0.30675314650978514,0.3008880753445418,0.3154535915802426,0.28993790662286356,0.3085496845777584,0.3256027844106585,0.31025103625237105,0.316142694543408,0.3503995434797506,0.3016922026414976,0.307360637575991,0.35003147141134033,0.3016164619740755,0.3020725505188225,0.32178635358058755,0.3547566851957837,0.305477303969571,0.31346702340505045,0.3002976477278102,0.3184572128611217,0.33100652456383245,0.35272689168253185,0.33191397103443965,0.31645985103022445,0.31111872752731784,0.335352587428381,0.34099188017305593,0.3121924893294115,0.3114592989700845,0.30842592229560417,0.3019573028485194,0.3046989710841558,0.31378052320985667,0.3176114463060046,0.3278091167192968,0.3345375685513543,0.31791654266729286,0.30483495632493024,0.2964181122169657,0.3269015179600681,0.31704238384510874,0.2932065341556108,0.32796631706802126,0.3296521048813735,0.30931047244464754,0.32424748896219696,0.3185393783436271,0.3145854131420135,0.3325045608035934,0.31039626902904355,0.31405669205113196,0.337813232360251,0.35237738226967474,0.29941502675655823,0.33220903888565273,0.2903002604948624,0.3344428300272667,0.3231152833203873,0.3933834221594069,0.32337134068082607,0.3117909795869124,0.3072870851090207,0.3017443088321923,0.3050785991923036,0.3173336641019352,0.3222280087369625,0.30935250516271723,0.3093686833099752,0.3074118944125141,0.34629884321879334,0.32272481853576307,0.3079796470155511,0.3075890184136606,0.316351889997159,0.32130276033034755,0.33958586877183555,0.3403492025078353,0.3022627186789223,0.310061405755597,0.33287289922351737,0.32959696769539354,0.3098682447025047,0.30487997532169164,0.32847308552737037,0.3358887508066447,0.310054812402087,0.3224292882435157,0.2939049945657822,0.30879396611806187,0.3224842855603534,0.3572682936607395,0.32027926574574306,0.31320377884108047,0.32700936328322033,0.3096407901590955,0.3245954325314218,0.3229863990558672,0.31928030593983286,0.3238433091322073,0.3092813165827628,0.30836784174999277,0.31429204241572667,0.29721869917963917,0.3322739888164756,0.3203133808517986,0.3156554192373286,0.35134111639242194,0.31362577900280864,0.3223327646995752,0.30023906677295586,0.3146860136638279,0.3040654669583626,0.32335080169984304,0.3306376289645,0.31978914782196755,0.30166927900898416,0.3225601581509735,0.33170734783693007,0.28995243986600056,0.34864644567139974,0.32795582683893376,0.32633784939444416,0.3193515254909075,0.29885910521923414,0.33840813618396287,0.3508015013422544,0.31055776410139446,0.30847149005156516,0.3351190160885906,0.34631157499478105,0.29189218492614943,0.31162730142852035,0.32802973933755714,0.2929753912628385,0.30088567519264964,0.30660442314866393,0.31880389602774234,0.3109173860595367,0.3273012883646488,0.3151482551069249,0.32419139535702646,0.315951335222077,0.30997263163683986,0.3136589315314076,0.3133479042542415,0.3215113170901255,0.3003988689410706,0.32059980602898547,0.31560813267235976,0.3219385530412198,0.31997353536848405,0.3159730504247798,0.33029352782184734,0.3121934930496547,0.30492699830979936,0.3287847743966136,0.32947990719599024,0.3008442119476366,0.3258799311827965,0.3313398532609498,0.3394238702218234,0.3483828399502994,0.29785518922241233,0.3115282949607161,0.3211796064115008,0.2988736152675892,0.3273059528255639,0.3591178709864459,0.3083087705916547,0.3175601873145071,0.3193680513610862,0.3369451852635782,0.3199882483844057,0.3139589783858302,0.31760571782139124,0.3265258059928738,0.31381946276678957,0.3153612609267229,0.3469599594441195,0.37809707350739524,0.3097685216689161,0.3052749979142074,0.3307020804891992,0.3591608504699862,0.3126493363062775,0.31350100879856896,0.30292913848394215,0.35164850922499513,0.32497691852294674,0.29916468402259094,0.32323839381387504,0.34454913402123316,0.3071821245036333,0.3104805133867315,0.3006435500764272,0.35231438963710837,0.3135374578640763,0.3228286221417269,0.33104658873096515,0.31070359891577126,0.31056972319124465,0.29228036964651605,0.32888765547346893,0.31401180028695685,0.3342210586971717,0.3124867127015139,0.29617813707295937,0.3362497266738661,0.33097484442215463,0.31342366076362305,0.31074709879799856,0.3100628542921315,0.3032694945312294,0.3341722332283175,0.3022118018315159,0.3062239361285365,0.35609947534289516,0.3156472979513086,0.3382801730402077,0.3232786507779641,0.3074137642109788,0.31500723875227366,0.3227616565800218,0.346674544371557,0.3096536507535072,0.30327012102846373,0.32394197515581397,0.3055193590276897,0.31003464000220027,0.29825485904455673,0.3163892902934366,0.33818367239026015,0.3174958558307809,0.33956265823157883,0.32609294103839603,0.36029660036849964,0.3233480698521548,0.30376296756392496,0.3118600341460921,0.33398521461498615,0.3470285479988004,0.29283408732483535,0.3069533557387421,0.3178145825036493,0.35662799786180216,0.3121647773785937,0.2991127689677536,0.29884365939906543,0.3522617466360497,0.32750105370758703,0.30458785331347327,0.30619265833277076,0.32858539041897283,0.3590503164297431,0.32182631875977663,0.3080017126468697,0.3229871868538019,0.31379936141640086,0.3534352776058197,0.30073911717869467,0.32605879945813043,0.3028173782111201,0.31291926617060445,0.3084956211607203,0.3384617143769789,0.33832675438185805,0.2915012008184374,0.3117146360379667,0.3155470998406854,0.33759898653419723,0.32882896674793927,0.30795709266260535,0.3094295935470261,0.2972181976855232,0.3004404031560937,0.3260197517368098,0.320729306719712,0.321720222361049,0.29944252279357514,0.3431038339757886,0.32710466971945534,0.3083040852431836,0.31754804921724783,0.31077384220989507,0.3216153617262464,0.31028354389766977,0.32871153673963976,0.3188058064613839,0.31143754365284126,0.32802557533401894,0.3208638648084981,0.3052494242164215,0.3071324291918409,0.3242806189404991,0.30245427850334555,0.28890474546837874,0.29585077016879796,0.33542968791616146,0.3116668434600255,0.31755889109787755,0.31157239840535167,0.30951705918742667,0.30765014387600126,0.3121829987078038,0.305781752544913,0.3042566017310602,0.3239003032305277,0.3161630102925618,0.2979868705883785,0.30675594584489796,0.30823187507624616,0.3123796367811865,0.373848003924662,0.3093662205362671,0.30511961822678846,0.31252031870692776,0.33777410763080057,0.32848386441233857,0.3407915714439102,0.30509846317417094,0.30759954644557713,0.2973251967086278,0.3348943323892989,0.299249620644909,0.36130186497738903,0.3547130179470595,0.34286141202173764,0.3261476937824116,0.3186849417451036,0.3300517847920673,0.306962304549137,0.3058904235719504,0.3437067143716617,0.36006424772986645,0.3117583353028605,0.30860418657083544,0.30637349525387847,0.31079648705831187,0.2962418781922427,0.32787522505214756,0.3421715973310469,0.3122724857454588,0.3153936909031175,0.3090501295967623,0.34906351126949114,0.30024290530474695,0.3102767393092511,0.31714831996392784,0.3219477791995547,0.32115934797928064,0.3034843008754685,0.3211553780569504,0.31763555403794236,0.34058153538008207,0.29028759513533353,0.31772062268150003,0.3119424104513234,0.29911141811640235,0.31732559916043357,0.29900476943320775,0.30672948034968817,0.29079498599368153,0.3180551982877423,0.3175739078954948,0.330912496869118,0.32714826494699434,0.3097980216507044,0.3203365186397181,0.30482209886005224
2,0.3214210211512796,0.31189952102038554,0.3250753957297279,0.35391167577975247,0.31045437206745985,0.31108683458093683,0.28929414643679235,0.30309655236262556,0.3206408974829335,0.3311759540062776,0.3311987661896982,0.2971763865739447,0.3044980993543451,0.3293924825031197,0.31537144403516815,0.3636904269972916,0.30532324911449366,0.30277998215956275,0.300323902155843,0.3198211127312396,0.29665964720827565,0.3340921996007342,0.36806979323877786,0.3716966376289058,0.3239335077904678,0.3203516511869225,0.3157824560405883,0.3209040146080986,0.2979741239158208,0.2961911572996493,0.31258586756477136,0.32267209807260216,0.30840525408353614,0.3423483262160318,0.3033758411480005,0.3338124978625283,0.358200145672314,0.3104873297005566,0.34605779049525437,0.3530097692274701,0.3338796830915888,0.3166652888037573,0.3108116726431478,0.31334911994004344,0.31383192841852836,0.32774611100350554,0.31689051012584646,0.2983860710395332,0.2971996977433169,0.3009776484425163,0.3003767813664201,0.3153588616233778,0.32331588199974404,0.33647123544298113,0.31403495585913205,0.36750364647197725,0.3240052489211797,0.31103511544068,0.30277916305363367,0.34343763630911645,0.29673236976836426,0.3139693814366558,0.3006956886391452,0.3242797491065338,0.3208054953634059,0.3247566593467343,0.31420180367082684,0.298672088955509,0.3164041645297163,0.3059905972862643,0.32956907700746685,0.31204665472919835,0.3179955730750293,0.3200857536302909,0.3486969934930829,0.3055022564184951,0.30921053174112656,0.31884271513499,0.30357415322514714,0.311366480119188,0.29561874987801895,0.32435157082282673,0.34775267129961396,0.3040080878301478,0.3138477435257939,0.31156054506812036,0.30259687815173575,0.2948431802891001,0.2920790877186195,0.3204603279138091,0.29821900100420173,0.29384702662388607,0.30551589662189804,0.30234177063391965,0.2934357418683481,0.3424238696115399,0.33695702239188163,0.3073720336309677,0.3508542175618945,0.3384872563742822,0.3133291060478017,0.33193887533746097,0.3438321665907664,0.3222368314964903,0.32574968617183464,0.3317779771693676,0.318477314411092,0.3151603215036495,0.32635259836513886,0.3038089518700755,0.34977601170057543,0.30982322750048463,0.3623660124884759,0.3136718522224653,0.3900639513398089,0.31608244582727574,0.3804341227499337,0.3417480875915121,0.31817694007525416,0.3241070321958402,0.32645167854723317,0.2972236573273118,0.3352540110845642,0.32910827091255634,0.3255194004394958,0.31534480223880335,0.32175337836069734,0.32042809760300245,0.33026095837889446,0.32829154552623324,0.3050746493841018,0.2982728337291325,0.33048630806432305,0.31777710164026585,0.3056853807814339,0.3006248388036255,0.31444129776979557,0.31148785265023216,0.3211274378151724,0.36874176142125653,0.30484323026169863,0.3334613738333948,0.3110309494276129,0.3118234163174144,0.29803733193945836,0.3089245596417266,0.3549639212693557,0.29681161312330345,0.3647101118182078,0.3002106298586472,0.32317192477493073,0.3129383443209424,0.38115149966478756,0.3492212535509242,0.32812548862574265,0.30610331527738305,0.3101720133206401,0.31974422939808145,0.30748372639400967,0.3121814228671813,0.3494634327308453,0.304392972695263,0.3066196122304557,0.3113062289608065,0.31667944790202845,0.3353010952349355,0.31394333761931065,0.33553127283225115,0.34365136121457296,0.30492199867020026,0.3229152996035237,0.3093821646114242,0.3795687131940525,0.30459665602067443,0.3021383967863739,0.30537577378833436,0.3026585300484399,0.29999553592714917,0.30377580577568086,0.3194248003285405,0.3065889475807756,0.32478905321683316,0.33893558754398573,0.3681721651830586,0.3118926997037735,0.3466160043706782,0.31484018667082647,0.3060624786947905,0.3026232866651017,0.3431302296029431,0.3126935958858309,0.31836837214341646,0.3318437630950299,0.32809256083219507,0.2956247107725323,0.3145357907123742,0.3210758419511689,0.3138507024656402,0.32141146010982524,0.30104922865842176,0.3032697843123392,0.31589229421112724,0.3314527993204715,0.3233809110591129,0.3228729859916132,0.30835104650611145,0.3281123267227584,0.36378726425709695,0.3170517607975246,0.3042921023285179,0.3454287697551013,0.3213297314823535,0.32068786641979663,0.2955021599567399,0.3309448313302802,0.35551126711011327,0.28763345421145187,0.3290239366466364,0.33306646596934364,0.31937951523632513,0.3375023303697417,0.31894768318572064,0.31020989566745777,0.307483069457381,0.32597007064849526,0.33218027519210147,0.3153815836345289,0.3234387770848307,0.3249305601441611,0.338906068364598,0.32389480433222234,0.29663173064311804,0.3374550618297173,0.33475682453586175,0.3293148670421839,0.3429472038674517,0.33931380299775266,0.3239350440786227,0.30648269473093875,0.3239877044402271,0.30903111111639475,0.32820001123938786,0.31344302398211427,0.3154207098928018,0.30189469264254853,0.34618562556064225,0.3091518859783093,0.3036194765969501,0.3008565860618979,0.33236084739737826,0.3516744438028575,0.31005417407228664,0.3740412220267078,0.3378948402932791,0.29866508615132575,0.3409586599113108,0.31205760542340066,0.3186157790135583,0.31150602153419166,0.356827784612842,0.3165228609392662,0.3360132152232353,0.31898746947832823,0.321921026718765,0.30984368967168985,0.3225682580022125,0.31896850341736926,0.3758673551360437,0.3005548308161457,0.30652517668802964,0.3513325498159122,0.29698674892774357,0.3184144424280392,0.32934517982503325,0.3173682412241458,0.31689514493460813,0.32899396761316485,0.31742008471963523,0.32355325773608407,0.3381158374514527,0.33389986470876687,0.3193304470239594,0.33301510653171584,0.3009846244760286,0.30881795488015706,0.29136075355471075,0.3378369036036434,0.32740161062876216,0.3391152678927066,0.2964253490091477,0.30527256210742665,0.3304338140867249,0.30369743865211896,0.3083308494575352,0.33910286107814147,0.33221797654118457,0.30093806045417226,0.33704855009815377,0.31064894903838436,0.3210139154070422,0.31639814291193225,0.3116316945544167,0.3127734942652355,0.3210565015317069,0.3186159696850045,0.32835250396615023,0.3128922645265987,0.3254677130031879,0.3225205394096151,0.34435054057146985,0.3141963392585011,0.3124930877580137,0.30636658495355773,0.30053362708864356,0.32029672654994007,0.3009777115959885,0.3152484548125022,0.3078346744866953,0.3321077503378835,0.3111285805082597,0.31396522750872624,0.30197437209336797,0.30646052835581206,0.2937718961413121,0.31526328541557863,0.3062839099184029,0.3074168745070049,0.3218277067664458,0.3199664473151054,0.31322896385929744,0.29862445331982007,0.3116052079145767,0.3107747128240489,0.3242558878473895,0.34546554574177246,0.3268568277607248,0.3196527145927976,0.3124687651568436,0.31170608866449123,0.31082606684763336,0.31180333406579985,0.3047568501265728,0.29974019087322723,0.33451519161642185,0.32551559501731736,0.3137320433527865,0.30981501247674903,0.3369031075422307,0.2999980808578032,0.3080603408645781,0.32985410789312397,0.3151271522514932,0.3319012239782851,0.3233937791877243,0.34760286308983834,0.33066653393696765,0.31940468803956934,0.2994950239903992,0.3241249516731682,0.3321003341440018,0.30756139546408284,0.34808185064966074,0.3734310687431125,0.30171121094499204,0.31783398357525366,0.32737273861992366,0.30948857292524623,0.3194314874965681,0.305233107875357,0.3182724563095652,0.32662698121047506,0.3248825853914563,0.33483307390801126,0.3131991206177124,0.3239734971331786,0.32454023418763284,0.30552916769223876,0.33861440894717026,0.3570939624763696,0.3501752395510399,0.3046230165936165,0.31374450261089526,0.31503855636938,0.32325568899135493,0.31058804228435827,0.31335266716288396,0.30917595586384355,0.30088482948939843,0.29966673919091147,0.3286703787943551,0.29660696538886805,0.30911585857938906,0.31874557373514845,0.3187932354197439,0.3165911183069771,0.3313909147291947,0.3075068837391238,0.31352638813272465,0.3149040726190379,0.3116893963039248,0.33109842035037096,0.3272586229231953,0.3119988123850428,0.320063871394281,0.31013719173959786,0.32022001080574747,0.30798431691077693,0.34236560208961486,0.33922629065323573,0.3133383824305967,0.3158090259278631,0.3153113007868185,0.31126248223250286,0.29367515754752677,0.2935655799525786,0.3187209229247695,0.3155569990547255,0.32775899197052016,0.3110125732566481,0.3119625770175261,0.3235706289711868,0.31299738520668546,0.34167612168966655,0.3309390047970019,0.33402031975058966,0.29873178486019686,0.2908935359572707,0.3448305770678254,0.3079211122065734,0.34124096539314924,0.30498043772966377,0.36259199209297643,0.30432712481691754,0.32095583254013305,0.3226851875755693,0.3275728600218706,0.32724828611303935,0.3024876281764256,0.3129455655715536,0.31763508719457817,0.32231395077313013,0.326166451188883,0.3267271325936222,0.31787558566104585,0.2949486308065383,0.3080491824284555,0.3346514443039147,0.3203249096649782,0.3186756854846151,0.3359676268830984,0.33123509082536506,0.32726652150505536,0.32293932271451525,0.32097179520276026,0.31695558682713243,0.35753511611285516,0.33105516542486946,0.3035283579964812,0.31331600872287524,0.30809538563023037,0.34441786705890404,0.3234134216019124,0.3083922443518943,0.394472897353925,0.3372751420052079,0.33769254342206123,0.3114075860107717,0.29508897820853497,0.3662303483899034,0.3137861906791076,0.3175592500666041,0.3292652799895211,0.32213590311564955,0.324599828467058,0.3114343090039383,0.3021004439049397,0.35560840518145803,0.30511118166577506,0.3202257387572745,0.3158204864717752,0.3074697066326433,0.3044475324573146,0.30785765809101,0.33342165108908384,0.3037920966699218,0.2969414735593454,0.31874879448718885,0.29756731773612227,0.29636006127160225,0.3116799949663528,0.32158722411667406,0.3068531622546898,0.3039409120256614,0.34476005356261086,0.3184604457198855,0.308693502350218,0.3079093169298298,0.3492988296183275,0.3046842817935632,0.3176392717084605
3,0.35717545361813874,0.33313124514053327,0.3276394267828623,0.3341623230747629,0.31166882074705066,0.33197718656740094,0.30734531323997494,0.310068165157012,0.30801768879720953,0.3251653035297556,0.34607943171243144,0.30524849081889677,0.3142662155039609,0.34388705937732755,0.34692287512020287,0.3139742855345874,0.31607079349363887,0.29008449624543925,0.3364940954861101,0.33392465750852834,0.2961933258547559,0.31418862103335554,0.3054125299672944,0.3269748612205055,0.3172183383515287,0.30269987951611343,0.29835906103492527,0.316853719839972,0.30907068163737356,0.3040407683171248,0.3316918256877792,0.3096505714774601,0.3074943346897575,0.3199373359298386,0.3220345513413578,0.31713011841376443,0.3172688396903963,0.31453245884708336,0.340652515892819,0.29801634169055136,0.2947018781191792,0.3040935895137558,0.3413086692125936,0.31800638926636426,0.31214847967480736,0.31198408193213856,0.36293092550785283,0.30437023456737744,0.3094158806192178,0.3023907020007585,0.3280526326861971,0.29407989003833024,0.35145564655316497,0.3058021288320345,0.33526224184799747,0.3686531983346997,0.36286760342368773,0.329917227436067,0.31155275113428865,0.3070268200438264,0.3180934086936221,0.3245827960359218,0.3023691457867114,0.3197842146462845,0.3103708425357379,0.3329579202423057,0.3106381413309454,0.3106697374949974,0.3329799444744977,0.29261058090651126,0.3283428117886261,0.3192494732840929,0.3052955196098841,0.3081803100988743,0.31913711252858523,0.3321502750109801,0.3256333945051485,0.3052863327175089,0.32233890362609424,0.3162325849798782,0.32455713018245363,0.35245136564078583,0.3322921833164024,0.3185009982930481,0.31331668025592224,0.3047771477873281,0.29214156297673116,0.3071599756890621,0.29957548626032277,0.32928713783745056,0.3066905482766308,0.3041903316545604,0.3626098171802417,0.33281949176802605,0.3130125779352272,0.33601442218730304,0.3197289945215129,0.30675065258296363,0.3537283346076264,0.31102768485117493,0.3099283065846211,0.3303277772425817,0.32577612368944775,0.30650027066300095,0.30397522224791984,0.30678546554029434,0.3008173136375764,0.3154309966501232,0.3165944964240904,0.3043104317041963,0.32858630302968395,0.32675993816158994,0.3204445227513936,0.3269515426247603,0.3232394252237298,0.3673516705040626,0.359720808214311,0.3030466542867175,0.30731193038034504,0.31490937078102255,0.3145080436270795,0.2951439086969603,0.30608806929136706,0.35123512677617,0.3170599459166932,0.3109478514834818,0.35618352380802437,0.3401051077420817,0.31797650870626437,0.30469817937361293,0.3218715286364449,0.3623536949146012,0.3683511160626667,0.3352228318240889,0.3194346204966255,0.29431258846300523,0.3100671644749168,0.3219718822663429,0.31831401877846754,0.3365584646714164,0.3024463107836672,0.32064109508895794,0.33227479938873816,0.31371819373553034,0.31997304974455487,0.3205951275507354,0.394059993038207,0.35013763071719606,0.3286565879489214,0.29733096321996083,0.3177273261108803,0.3272501324395609,0.31783916503175125,0.314969586101264,0.3010926017276204,0.29817919179795815,0.32593054377430486,0.3276764000818195,0.2938945758613539,0.37635039844635343,0.34715662290628113,0.3217788480018257,0.3106011067158052,0.333530325458569,0.3430618092918986,0.32192841022650903,0.33479283742233534,0.3480866039477668,0.2962452209198972,0.3101749455589141,0.32241042269344505,0.332084651561766,0.3252464670213596,0.29008740856798976,0.29712087460819786,0.30310145505552877,0.3224687613165398,0.3236667692241056,0.33694533975265417,0.3339893364127961,0.32175291574402487,0.3200278336970019,0.2956775862022799,0.3352398788985902,0.3030434714253416,0.35690612231312835,0.3042713434146557,0.3292629424916273,0.31277312322671913,0.3303267483047737,0.30208704319374985,0.32090181610726304,0.30038539480571586,0.3149661098819386,0.3077916748210801,0.31354373160173254,0.3206810787184079,0.342917024805539,0.3160029564536054,0.299329042046437,0.3372989218592392,0.2944123594363262,0.3153685429768811,0.31420413711957507,0.32552279347137986,0.2976756385805136,0.3126144685541337,0.3456495379449808,0.30653521461765354,0.34756018103259906,0.3194756713369656,0.3302720375489009,0.2974524990030099,0.3035244292059082,0.32302562108345245,0.39433947898240307,0.29955585039165994,0.30885039884579496,0.311994767443939,0.3163909733586607,0.3308239136327875,0.31094275075095,0.3041443225994074,0.3195881600973231,0.32665327498981567,0.319641982226054,0.31843231215718737,0.3198539604407088,0.29519046934078824,0.32200787398092134,0.3001612367064535,0.3092492179061779,0.3098302298469748,0.30198203631679693,0.30431195769673647,0.32099363543382964,0.31121078476621833,0.31208805032326487,0.33346069580003357,0.32746756445787445,0.2974562620123485,0.32197356828431956,0.3279889830048174,0.3502207519089857,0.28668910062706476,0.33256735389448044,0.3193906107274435,0.32820447632803834,0.30896808160146155,0.29637816075647816,0.3128983550735305,0.3494391436317581,0.3395433742749223,0.3005358664803371,0.3056954730879726,0.3051315960954269,0.3145051705203937,0.33081333073589275,0.32747780764545853,0.31784148555915637,0.34709437599083476,0.3185387469267308,0.31846849193725196,0.34285914971540493,0.3028222002014725,0.3306583535460768,0.3214624233277509,0.34368738085153827,0.3163711831291901,0.2961261789583921,0.32889844795079337,0.32561145635008876,0.3438348365666425,0.38123895186241696,0.3119253028599382,0.3337463580688972,0.31088945120780054,0.30021811268448706,0.3099287194267336,0.3199868020452075,0.3600762349931629,0.30086472894227445,0.3011144561047485,0.32085342177104687,0.3069385215408492,0.29690742158139527,0.3182736495210141,0.32179854224055787,0.3158100974804895,0.30203450907707635,0.32251175745774946,0.3181909768153831,0.2982932425933983,0.30581391237185035,0.3000837945933754,0.3126535748339735,0.32234051922714996,0.37658824101503446,0.36238350383150336,0.3059325313531991,0.3030740631652427,0.30970222850644735,0.3210444539743393,0.3191403828749697,0.33081046443871365,0.352012937132817,0.30967849854921503,0.30576713722011917,0.3232655501528009,0.3431596799930031,0.3101607640197304,0.2911079219929234,0.3155778861444082,0.3034326544254403,0.32567136355101867,0.2978155961578682,0.3180863044616487,0.31557533499040646,0.35159717904449717,0.3168307671995111,0.34918751184034796,0.3212264064724495,0.3094324735758998,0.30633078839755096,0.30547781924065687,0.31884520859804977,0.3300725739853799,0.31301205649952285,0.3166555730299653,0.3213609633800857,0.3006606492323547,0.32495755398813153,0.33101097838026305,0.2974770511135601,0.3144281274625621,0.33296868237533717,0.3162120485723941,0.3296658549613011,0.3141140016081724,0.2986392439925452,0.29536621382259465,0.31593725647340504,0.3019672489575209,0.31516925365240483,0.30374201466679746,0.33602105523308834,0.3431807713700871,0.3462046787385001,0.2994263869556003,0.3049679435242297,0.31073151568811797,0.3744308794416428,0.3187335232663482,0.2997561518150951,0.3251930820025212,0.3092492641048196,0.3181043745499573,0.3216097886943144,0.3243739990063591,0.3056405302994999,0.3339437069652459,0.3483260518177441,0.33458919455606373,0.3191950321559987,0.32349915875411667,0.3175682003394358,0.3054776119828839,0.3218902995504591,0.30635862089069166,0.3274267729286411,0.3131726675709972,0.29902383015403977,0.3107358736150183,0.3100653011747563,0.3105400136056213,0.3040654131912479,0.32634514196060554,0.33382349699234254,0.36118625609036287,0.32209905113641024,0.3126022718512469,0.30350051996096694,0.30941744250671965,0.36761895014075446,0.3513574991997484,0.37067185244019113,0.2954542159525857,0.2952592370240448,0.33698305979858156,0.3007590235500268,0.31843260805576823,0.3042056721952448,0.31335750189325745,0.34403646738667504,0.31701010833319465,0.32740007381587205,0.31896999373060037,0.294604022024768,0.3095496152849344,0.3183361661016813,0.3149526979884212,0.30175648576214,0.30612034922888165,0.3006055609564766,0.31939970904695525,0.32146706456027446,0.3260172120393867,0.32105420218321623,0.3080257826242029,0.3114962314242574,0.30669607726969245,0.3091424812980119,0.35110088922990956,0.30263262155158405,0.2985998298463902,0.3254741760345933,0.3151973811492149,0.3226813125694911,0.32999633640533477,0.3105460256235547,0.2889450374922783,0.3009883357766081,0.301525747207312,0.30004411827241756,0.3028682612594541,0.31242866350843407,0.29556123481730107,0.3217585216636603,0.326609977003807,0.3680660128742601,0.32154375369091265,0.36006227473170427,0.30141219802993197,0.30116838583056155,0.3268982337222678,0.2956195422623899,0.3114977857449581,0.31197438164959573,0.3005180331623976,0.3255766153053517,0.32509569433109947,0.3414806430328448,0.30259054765409016,0.38758695247180935,0.30751309476630706,0.31221210158826773,0.3224722071530996,0.3072101943401701,0.3379745543710076,0.3633320364053599,0.31749793803336473,0.3055032829087548,0.3032363507661984,0.30389229860234684,0.3170124464000285,0.2972191828299986,0.3792603231239326,0.309684108995642,0.32113651894810474,0.30665345761186047,0.3022930294332249,0.3358012510270973,0.296154018388043,0.3220863356466216,0.3332450660052117,0.317061691956076,0.314584412740204,0.3068365903351663,0.33788704586886953,0.31688099186499374,0.3354209336989894,0.31673071841534245,0.32152291357342533,0.3080814230530068,0.32527035337260246,0.3217173078803949,0.33161528236893856,0.30360248941425194,0.30626129917452766,0.3237754562168266,0.3216028842563952,0.3016051655506083,0.3127816516491059,0.3051052523483026,0.31586457498860593,0.33224073984658775,0.3257747844758573,0.3289218270326987,0.295958779916613,0.2980027291964728,0.29627122249482224,0.3211012169586932,0.3030689754643842,0.3600115997403579,0.33565796364845174,0.31701827409077166,0.30260332386573896,0.317989785961821,0.32944620611751285,0.2996839457891237
4,0.32463270126663224,0.3060128630809464,0.3073746372477573,0.34459217368913236,0.3157065686855528,0.30830718807882357,0.30144822246066943,0.30445722510424794,0.31938311864663704,0.29963845562995617,0.32521129683233857,0.3130618660260935,0.30002318450890486,0.31208088161318326,0.2943009014022616,0.344835581148353,0.3340216926025995,0.3202251656399204,0.31311926637552495,0.3368894981127706,0.3097588637166691,0.31179483308781053,0.32106344487386573,0.31193051704386904,0.31943730399754766,0.31498234579168916,0.32807225046109945,0.30884243815590096,0.3018591704346961,0.33009542277508863,0.3253696738097443,0.30687192085687787,0.33794167245565565,0.3257556149170124,0.29890334047061895,0.3173733127352637,0.3696969691024342,0.3344245196263017,0.34014527441844883,0.3174836825873113,0.30791870155558776,0.3104039251861347,0.3185448758121793,0.305731521444706,0.31707821841652784,0.3348428107815464,0.3278445545757961,0.3154899997672247,0.2956642619764565,0.33134388903828355,0.3176042344017663,0.32401888628325876,0.3348239362005349,0.3540547810551618,0.2988313497523738,0.3076067464620442,0.3619849122237599,0.3210045256216311,0.3162386442823931,0.3148546619552874,0.3187535779713633,0.3110875580130324,0.33844786629731866,0.3285014496009014,0.30850379094863445,0.3368889973909602,0.3520709115399287,0.29609381280950026,0.3123397179026419,0.302961451217967,0.29571480827211666,0.3196059617595883,0.3007126204863241,0.3232395239369598,0.2901328491266483,0.3154892372430819,0.32147097525079327,0.30382606870573065,0.30765337340788657,0.3286891644247613,0.3114420818670986,0.3145854800917198,0.30624783617615525,0.3217088920575129,0.32289933525342085,0.31415223124002484,0.3088089659359456,0.30266467462814367,0.28682787044642005,0.33254728771204217,0.32783367306339006,0.319178747844812,0.3316307039861861,0.31914225308347766,0.3063701331444344,0.3658542815676191,0.2949569703901628,0.31228576114847917,0.38599969648390503,0.3025570258268685,0.3028506244862369,0.31378134027588406,0.32123801293576953,0.312486968909639,0.32803737688511864,0.32106815185213616,0.3016733163620439,0.31746358956782117,0.3360710253785791,0.3000952008440404,0.34331287186718157,0.3836961285262741,0.3095196082768377,0.3198478504671361,0.3168612587404047,0.3205745182321379,0.33799561483666224,0.30094271685747437,0.31866614257645387,0.32539376003720555,0.3426408792322171,0.34025026614436854,0.31291800407816195,0.3117949031838784,0.3129231312445673,0.3084905843455967,0.3175650399697989,0.3328882553296951,0.3196029518502953,0.31272744819683085,0.3265470951361925,0.3126677825680545,0.33922084223011845,0.32916790250567474,0.30153702896399776,0.3259426512068908,0.3431130373666213,0.31326821110464376,0.3217861553227897,0.3161015055743465,0.3014097383483203,0.3554045497599775,0.32727072961506076,0.302586588239531,0.30157609291190784,0.32054097254981473,0.3494404448442693,0.3073826836048275,0.2996997200789405,0.30606589854255495,0.3098354036483927,0.3408897561471687,0.3430248817380177,0.3373176056314845,0.31158870869584326,0.3102099484726923,0.3045780866183934,0.33379237310074145,0.3107459309146801,0.3129846608477347,0.31233632776922493,0.3180052002363895,0.3025285447042818,0.3349417027047478,0.3040302112042694,0.3021675640364957,0.33625449371556027,0.32085890978096965,0.29852467286037065,0.3281145158453048,0.329760580466156,0.3231288013936614,0.31648420811386063,0.31685104324263524,0.3028548994083181,0.30775923421444606,0.30400520297194633,0.31317132121727925,0.33547105181737047,0.30606566257996803,0.3063213613131891,0.35225376780317663,0.3003586103892735,0.36032263726052616,0.3286230707398228,0.32218653318521107,0.3021815259702714,0.31039310039470813,0.34452926499144276,0.3454937934561938,0.3111294003133422,0.31714262289961814,0.3270952616196327,0.314444586164664,0.3045506998839036,0.3103528081823417,0.3236388580432282,0.3133899026319393,0.3039053444985441,0.2984350027933928,0.3214427817704931,0.3184542609735054,0.32995096512276834,0.31477821813875406,0.3144582372428312,0.30983391597364773,0.3181653523896417,0.33279068534520645,0.32840824358485005,0.32940480004214046,0.3280127130940719,0.3260706302532733,0.310049918532121,0.3113962024868102,0.3231115438430197,0.30867889013054806,0.296541876659046,0.30985243085583636,0.3216705938676772,0.31714019892260803,0.31316784313898177,0.31310159106767566,0.2920751611191891,0.3093241090700713,0.32556280162006346,0.2938905256545138,0.31622737488161906,0.31553208807895644,0.3017205103539476,0.3139851343570822,0.31725483990710357,0.31195136960232406,0.30833675166890984,0.3085066964258791,0.2917493863669932,0.30622905850626864,0.36090589639206705,0.4049441663862973,0.3239813674179086,0.32773119878340473,0.31025986250680415,0.3014653990515683,0.3054083103671502,0.3138939650505343,0.3151018403731672,0.3556646691976462,0.30167394948607074,0.31840002972788856,0.2917166970580438,0.30760582369628614,0.33353867567056195,0.3317717802639162,0.3531063112721536,0.3027157731944979,0.3012356773988273,0.31859500425626497,0.2989910321163235,0.30822292403724333,0.3224838421089421,0.29933235295847116,0.35456888527397745,0.3282565175461192,0.32753789212639917,0.3472106635103943,0.3009277494016874,0.3340609135050139,0.30826349530614283,0.3183124262861112,0.30922950018275663,0.311300813503153,0.3342898275547357,0.3385386831900655,0.3407856720593471,0.32113374979418,0.32062412144054947,0.3131836361442923,0.3163521297853621,0.30357209534631774,0.3145053181241087,0.32649424832116203,0.31862689757974283,0.3361585713723172,0.30165471561549995,0.31380411323486246,0.33408979011694395,0.3305007479629329,0.4079033194251888,0.31565604697508864,0.29686172594626586,0.31538212586903697,0.33020742110762585,0.29876996028647346,0.3179530399817039,0.29399088661137035,0.30448490705179804,0.3301565419480811,0.3060199036100656,0.35140642148087775,0.3125817919225627,0.3263951159153734,0.30215860130100036,0.29274282564930737,0.33167978161519046,0.3369473539507089,0.31904475772356244,0.29689933635073135,0.33523937175375573,0.3101795505250192,0.30880432911580724,0.3655898760258758,0.3091708790153175,0.289315646279823,0.3137683167068096,0.322030580472792,0.34744903424970724,0.3017348728974404,0.2986202995456145,0.314628093351231,0.335056647077839,0.3095979606233448,0.36240877021850426,0.3262870351363516,0.30683971676733984,0.31319771134666896,0.32459646783091073,0.3036366052730331,0.2951412058722877,0.29577354977222203,0.3037240286119132,0.30465637305905763,0.3222727947295736,0.3015652164932917,0.29937511188479354,0.3210499284923229,0.31954863969781294,0.32551911094100056,0.3581192465791724,0.3072128345684858,0.3025487440497956,0.31463836748548923,0.31380091996864967,0.31216606432414873,0.2935960124763093,0.3223673116970095,0.30157165235846906,0.30363611973656635,0.3129843582331544,0.33010011797043964,0.3300566061232051,0.3049476477462764,0.30384446978703056,0.3320079927540755,0.3192790928530243,0.30225310880760015,0.33699388457936896,0.32828568718076706,0.304802234957304,0.3054089072593461,0.3171328923742026,0.3025868214497096,0.30177219203283,0.35846939573212777,0.29565203884015967,0.31985975870550076,0.31285192701948245,0.3196224918112757,0.30762619450509787,0.3208910982057195,0.29906130978494766,0.31975002119945367,0.3186467869674029,0.34228936495522394,0.2943559112037878,0.3239586117937002,0.3098540736690646,0.3324484882171562,0.3140330990784733,0.30151220053656375,0.3274954903835095,0.3444378978866559,0.3170567705930923,0.33763235393481905,0.3140371242853604,0.35270811997074974,0.3743199313087899,0.31596318019913194,0.30783431205223605,0.29972882284742425,0.3419440403461389,0.3178596673224071,0.2980298483488074,0.29754481963588275,0.3186488910667942,0.3270790269269386,0.3119309964582197,0.358532741053733,0.3173398392446872,0.2975386685503666,0.32098681444744986,0.2968701312016452,0.32272482367723093,0.31275851555981493,0.2989585058386138,0.32701159154046383,0.31742736549110645,0.3364018584657221,0.3223839298467763,0.3143429870585556,0.31817083938869734,0.3163223637742893,0.3210972792954371,0.3235923206111358,0.31624135937828324,0.3043118136754849,0.31086334359659795,0.3290658331196282,0.31712401917729827,0.3139983514806432,0.3107732191511866,0.3131178307396514,0.3353393794833425,0.30366452719055526,0.32077348327016886,0.3220416563476892,0.32441229677644434,0.2997070422411072,0.3125430319395525,0.3195327594870242,0.3171865558033469,0.3022778205175221,0.3053805578010426,0.3274159259756593,0.3200576030672081,0.31359555397379657,0.3431815403180144,0.3332919274344451,0.3205654090506424,0.307691178070446,0.317622508651731,0.31737754019466324,0.3153673124104489,0.30686417264403587,0.2959934691364774,0.33871210972207877,0.32587004128040414,0.3096563955434891,0.35927842566186413,0.3051512998961738,0.3275780228183063,0.31605044256103165,0.3202738805202195,0.2959459594647226,0.3083396551702241,0.2946706770030537,0.34582061467167746,0.3305753613279049,0.3566490127242618,0.3189634525849322,0.31419488803135487,0.3101019656091551,0.31994794824060346,0.3446904235657973,0.30007174556529065,0.3054938714572718,0.3287564191234011,0.32351986853474035,0.30321262389980325,0.2938359395373222,0.3012207877744483,0.3333991046200815,0.32340587675846666,0.33400061584102597,0.32182538820909434,0.2931148913419521,0.3033173278768214,0.3118680986601532,0.36264384263714333,0.31286861907068764,0.3426444073304188,0.32253820790669624,0.3517338040955867,0.31998714291975655,0.3494262566082984,0.3134607279446245,0.33552303819276924,0.343717002182588,0.33009688688547995,0.30115359132131847,0.3256480600355046,0.2959985353596812,0.34555576515721703,0.3038397556918482,0.3395335874061996,0.32001252081434395,0.31873261070388487,0.30500856892091166,0.30869884544839377,0.33611220683183557,0.3222342953395664,0.3100013264527647
5,0.3368886996166839,0.2942589015228792,0.3030565354262157,0.40085878481468074,0.3167434394950376,0.3198600565196088,0.30314098369417786,0.3041964763011774,0.3225079271493822,0.32061598049856505,0.3485332511164994,0.3475537304793889,0.3410145392373055,0.3249008326750165,0.2896288561086832,0.3477837897497329,0.30397955746236777,0.29946889033145363,0.31659578241408004,0.34640310079078274,0.3202453246878746,0.29752041517433764,0.30262552328749215,0.33112952176585997,0.31087234425840676,0.3168679600174051,0.32466761148915413,0.30120051032800327,0.2986934146306609,0.3016461075691411,0.33039159667272217,0.31276514204849426,0.3528685476241782,0.31402507575823674,0.296967964581459,0.30634921293285,0.33443009880771624,0.3113717452636271,0.3478394413591714,0.30807318837105563,0.3190312709101203,0.31132989930283617,0.3164874758121289,0.31062066691403667,0.32422291993661867,0.31389496407231104,0.3303030751025444,0.3314238760729067,0.3015119078683878,0.3132095376589767,0.3100603481984253,0.3165951837684714,0.3150187017018346,0.3091689614850015,0.3124672189985794,0.3315166464733128,0.30926857732304164,0.33084017032894886,0.31175759998833336,0.29478501535135354,0.32996310735149137,0.30352212291822445,0.3386721780698011,0.29442582436460085,0.3419546473927936,0.3286966670580749,0.29947637270502026,0.3099588573984685,0.31185889020614666,0.3209082998702437,0.3287343925099523,0.30412142586555135,0.3140223059633388,0.2926467481824332,0.31324131621999596,0.3112493590334643,0.3521326769007308,0.3113117408896541,0.2904543961401729,0.31139790077132207,0.3021104571832375,0.3063405981102295,0.33081647924263624,0.3327840961819629,0.3171582845372455,0.2953184116665835,0.2953439072822745,0.30352154596551717,0.3142859548794074,0.3103700076502362,0.3436760382263001,0.3294981080600207,0.31934192104113934,0.3070319514513019,0.29287996352703616,0.4018848436702121,0.3060572008535401,0.3157749883111058,0.34522360924499995,0.30403577985571095,0.3097689361951334,0.31024347674786246,0.322794860511865,0.31560195033251465,0.31679143456088027,0.3389441037015165,0.31819152990453325,0.3048601745450369,0.3294867702105219,0.3248825495062606,0.3247936771312623,0.33594107328123224,0.3128133430615383,0.34317330408817437,0.3424544735278948,0.3286149900090479,0.31786538985843527,0.31342708104397626,0.3147124845567936,0.31549132976198735,0.39250562450363646,0.3033160537307974,0.3091476069239376,0.3104202231280178,0.33077481507310874,0.3247445128302522,0.3174447861611088,0.333725977799901,0.3201666498700941,0.3414866363706644,0.3232460581656556,0.30863401257616435,0.33329370698205396,0.31026820803792365,0.34345851769659974,0.30073976729776175,0.3133934051025903,0.37087172736145935,0.3109789126799183,0.3455578941608538,0.30178898259130216,0.3121598870227258,0.3454051630948962,0.3297918366436445,0.28920344938414816,0.31942196032816883,0.3566530835961211,0.30587842766338635,0.3181980576496329,0.3062031917446871,0.326326035355351,0.3116788484806609,0.3725874482648198,0.32381735817499424,0.32358666091722055,0.30808882550532835,0.3146216446369945,0.3173668721107777,0.2942663208650956,0.3364876391441657,0.32752266222077536,0.3194761655958726,0.31636520713284016,0.32038621253458754,0.30794449520586087,0.33869119646012474,0.34491829151829767,0.34594256760551756,0.3165046234067951,0.30383114261033084,0.3197418508687987,0.3148348242122913,0.3059427081886582,0.3383900325511607,0.29051156954944723,0.3248527001270509,0.3333591127210841,0.32477098722189995,0.32245605888948137,0.38233321802524944,0.30780708253991584,0.2985737926691626,0.3081879373867044,0.31691528277671266,0.3183188254090482,0.32415888675439414,0.31605882437790705,0.30575590048284307,0.3098961944549098,0.3579749785492083,0.33057123934332483,0.3161444986225687,0.3221274600159416,0.29913229016273596,0.3171089227337549,0.32559341001451775,0.3281447368420583,0.31060110153358567,0.3087326118913531,0.3232424717858085,0.304408338258826,0.30938598130059103,0.3277202893639769,0.3280054716915003,0.3290223494639082,0.29450628773460263,0.34046290519044914,0.3387885457464659,0.3241846512023727,0.3290822616832235,0.33190263391147357,0.3278146009754991,0.3509359167648881,0.3082536730770309,0.3007573086811353,0.30082982418071536,0.30433211766592877,0.2996378460767904,0.31234752540541255,0.3185512880102936,0.3387869516351386,0.31363090513909125,0.3049843741437444,0.3044598768002993,0.3412601864449115,0.29431460713926305,0.32814078993173607,0.3239459071563832,0.32039283139688196,0.33740344780608844,0.30914202086638465,0.29769732730000514,0.3227708910168562,0.336718294457813,0.3197346702728944,0.3611236219687824,0.30479650457224033,0.3155855747182403,0.321917898900807,0.30445236631880435,0.31784659716287356,0.30050210878930783,0.3141044478106433,0.3047550932557745,0.29897102230357075,0.3182926007829665,0.3175343888173856,0.2998885146098509,0.3158135419886413,0.31746445841293713,0.31845669412767375,0.30605641351325075,0.3438971426186218,0.31897735691290074,0.3092605620850386,0.30914972366491683,0.31265603171995526,0.31947814179419115,0.3443326098811774,0.2955783994476107,0.3969487777208123,0.3408164608095569,0.33679924205020473,0.3355562495909347,0.31572943140946175,0.316702640711383,0.3223436689743521,0.3478759197303844,0.32492697593632613,0.30395069525198315,0.3128091469387074,0.32455536217090675,0.3201931174773687,0.3023428130154476,0.3059560047428591,0.3215847571500965,0.29749427453703786,0.2991604398641858,0.3145695052644212,0.33174508139889264,0.3458780399429432,0.3341391404121233,0.3072080856635847,0.3006755362255806,0.31795824895471086,0.3178880593818959,0.3567650985747612,0.3158367332714551,0.34523973709908806,0.30520407688487605,0.3119531055966226,0.32083692035634437,0.3165503163709681,0.3241076789977969,0.30799892836132725,0.3502976337273831,0.2998484156844705,0.34200971111098627,0.3549839626542314,0.31049942690036053,0.31335038318842245,0.3605042893138123,0.3198027916309723,0.30787269955568786,0.322948407687137,0.3166395191905335,0.31135791465121276,0.30872172897626166,0.3085012155048771,0.3643210713939981,0.30993079574878407,0.2893586566484776,0.30890064235980846,0.31978333591732355,0.3418908380954798,0.30153989653459945,0.31018296734539386,0.3018552010791803,0.3329711370472588,0.3269885889018262,0.30603238485947476,0.3256840847248398,0.3404758827271715,0.3236426800280801,0.3171050146193613,0.3023722370867862,0.3175907345025337,0.3201559207942454,0.311884348878081,0.30001606950928517,0.3199499250158264,0.3203454048154977,0.30320220252823893,0.3452905700733403,0.3038994370691401,0.3195350995337462,0.3212430546860496,0.311466098597403,0.3151296517438475,0.32171637213586235,0.3069068938506361,0.30974276182239346,0.2990926126081003,0.3282734543737256,0.3151713630437606,0.30195130393138997,0.30580002470314077,0.3922292330514553,0.3017913755823937,0.351072723668106,0.31688192920584357,0.3334986297369803,0.3057339079481277,0.36083496269463083,0.30387245879189767,0.32623851073995547,0.30537260542071437,0.3050288687576567,0.31680045965585946,0.30557017646637563,0.30927438979376315,0.32790871750663675,0.32534904026824596,0.3092672949112097,0.32476080293740994,0.33874388682359485,0.31300421812520385,0.3346156559444052,0.30102643592220324,0.3519043332036892,0.3372864172321475,0.3485056355525098,0.33704070146415854,0.3172339857093614,0.3045619929383453,0.30375610862999247,0.3107267187791355,0.3157507536763063,0.35180582925769766,0.3568804326144299,0.3642057752908031,0.3084413486669514,0.31233182163122125,0.3614109013423171,0.33113610695955903,0.3153399074954508,0.31945181836682746,0.29218776133654367,0.32435513758276163,0.3121655807930424,0.2906629371895767,0.3174316173491062,0.30733543539395597,0.37099430792461224,0.3019549438030622,0.3333818679209083,0.31268417743237803,0.30996033563489467,0.3129858849321995,0.3070466024207765,0.29549846714248296,0.3146674664086557,0.31147726741139886,0.3106753905710606,0.30615472380730313,0.3575748100949863,0.3173568394722094,0.31788765827612336,0.3211714254830178,0.35400335437539904,0.2964647193623196,0.3168616611861644,0.32826001970266117,0.3109255734300482,0.29654630104614943,0.31525876399226066,0.3246365580245871,0.3077432679576212,0.31692549191817,0.32185784526898886,0.31831773770286287,0.31898994502967193,0.33485240774531155,0.3173023581673873,0.31676367205342754,0.31153425412572283,0.2993068465813735,0.30929592982182363,0.3234637024922096,0.3060184459668448,0.32962522817608203,0.32339628607539617,0.32750574563593626,0.3094018815337258,0.34846759775653596,0.32946641510525826,0.30185456874630323,0.3492137845796887,0.311002561039835,0.3083124576345884,0.3116776857077495,0.3236484492643123,0.3244393148214292,0.3317426374271214,0.3110552754881657,0.32368733831334573,0.34050053044522155,0.32651130426936537,0.31970158384592684,0.2955862432059887,0.3235354323304141,0.3206813852978433,0.29997302796451325,0.3527401939533694,0.326484832431058,0.3541452847258762,0.33621587453592616,0.29138973832872617,0.3196453789996011,0.3019474260770208,0.2960605771699204,0.34131420499303655,0.30983379375307435,0.306873148958438,0.3715753405678638,0.2923469494488228,0.3453149890201988,0.3035875548018922,0.32399402067659944,0.3099761405585111,0.32526447526804114,0.3177452114500746,0.3034897345609598,0.29079206119986245,0.31744945596327323,0.3550579514032964,0.33453573766606237,0.33427986190017556,0.30147507827624376,0.3181561137510418,0.3124757634525959,0.3220087066856448,0.3263163302141462,0.3327115158473694,0.33150049613736504,0.31559669626071396,0.3153841520539272,0.3190307767397858,0.29426959636746897,0.31460476027690926,0.3154112519226425,0.29683366818953144,0.30851922948936694,0.38641920595840096,0.32822305893573916,0.3422286947042321,0.3344377748365231,0.3378742108738132,0.3247136977668539,0.3117221952301008
6,0.3311644276614525,0.31997748901125395,0.3333249752114691,0.33630518897691414,0.29527106733225883,0.32377333513743906,0.325826583041211,0.3123830869424603,0.30394167065649297,0.3089797639585102,0.33430253441159563,0.3049128230332507,0.30860175158648906,0.33345205881370477,0.3035521422777259,0.3198928243915439,0.32502713738144084,0.32004775856431705,0.32031655961640865,0.3419276821183487,0.3112486728085849,0.3014863283871595,0.3263541101966192,0.3381583116707256,0.33277795093286283,0.31804452297359986,0.3101788600819054,0.31487442247791103,0.31474848864519644,0.2989982831709968,0.34723094106218927,0.31035430689682403,0.3162883341860148,0.30885501789764064,0.3135646846187926,0.32110736534347867,0.34099950071788043,0.31390819247552104,0.3139285686751121,0.3375107515026579,0.3066475699828515,0.3149411101549062,0.339709389371431,0.30331799304292334,0.3353939092390437,0.32268729944838126,0.315082643717449,0.32625819871429024,0.31182891012625763,0.2954173184500806,0.3012479152747937,0.2903101713824457,0.30408148896356024,0.3421184791977469,0.32551819542106053,0.308445402854731,0.33253588254615607,0.3238949112885307,0.3232281611501722,0.3207162035703984,0.32745077657486815,0.316181741877536,0.32484551997908606,0.3229578890245853,0.33448972894168943,0.32630318927958574,0.3002481324823225,0.3178203478244298,0.30706446571487034,0.3126062226688653,0.334747143380397,0.3056106538858859,0.3106394028318308,0.30892604754172404,0.30373197916769323,0.3039042787624535,0.35163385916212186,0.2946588320975921,0.2971258615977316,0.3139968240957135,0.2967293902371675,0.3417920252088983,0.37211891563349186,0.3191467962525142,0.3215795418841289,0.29506835641963447,0.29774818890196775,0.30247001184849875,0.2935578598536076,0.3340239536659948,0.31061455926612946,0.3437401892861415,0.33285730017431686,0.3109262527979503,0.3257988245592588,0.34203420443023236,0.30059085344254877,0.3135136684294945,0.33584084253624286,0.29823321610627007,0.3282994944282087,0.31245851813964814,0.3198716309438824,0.3221952510299514,0.30325584818698575,0.3032590483384413,0.30599322530327433,0.33414375930849094,0.3208471326045826,0.29507994193317516,0.3134627456278675,0.3570580746642013,0.3242461474190416,0.33147217075824587,0.31973794589993293,0.33641699606973263,0.3064246316656468,0.30432885510080043,0.3188848099318681,0.3107413271206155,0.34550001014618176,0.3067658164605467,0.3248100236368668,0.3230413597542299,0.3161629007770149,0.31518041787969314,0.30449246620643666,0.3366553663021009,0.30816841338468975,0.31007300236901,0.33236064624887285,0.3065886164668958,0.34267598783416153,0.3540962302013508,0.2956279418023548,0.32692202521589275,0.3293214829457555,0.31584778051963863,0.32777411497990083,0.37235953548220163,0.31183617728251933,0.32832264033363245,0.3286283405798012,0.37418871278485477,0.3099964848380591,0.3300663957993003,0.4151621422376472,0.31409820478601824,0.3012081788145408,0.295193767769257,0.29749000615157295,0.3132866747614894,0.37122704400385725,0.3632595767678564,0.3052823465537272,0.30314865528753226,0.34401757950383727,0.3391455586683868,0.3017834866410515,0.3118290621853415,0.32441667989506845,0.3093865555175095,0.31958519641819183,0.35231632208863456,0.32074702703164837,0.32544263115460303,0.339507997228394,0.3271053763687189,0.30359297563678506,0.3154710046855322,0.30797532929290206,0.2978802955343999,0.3003657526460509,0.35458419942758457,0.29244913308216924,0.3143074735872683,0.3143081346580486,0.32776115308415693,0.3146874028369889,0.3140077755738163,0.30561174345076014,0.3201936418505419,0.3199266717268025,0.3209989981449975,0.3956077741984581,0.3039148344302849,0.30886762454590894,0.3305403866672788,0.30004518518633466,0.3161054191591113,0.324283083681711,0.3050107664336837,0.3070151216160001,0.30338704250962795,0.29913750893710905,0.34918600218750095,0.331105645003244,0.3279942889820118,0.3085807702477922,0.29957563363461803,0.29907964713657437,0.31516467658942804,0.36319723253718617,0.34302357609196654,0.3201050468920523,0.29775663766833715,0.30843368592411774,0.3404070028836603,0.30795215603002746,0.316725680140937,0.3278429208893635,0.3110940040690394,0.30887000355366273,0.3136046249942308,0.3069867049484818,0.32561848181844294,0.31006371926359527,0.3034290690755013,0.3096796259962861,0.3092148736105509,0.3157044892794798,0.33925262902771014,0.31515103334905625,0.300872360475241,0.30207093001612567,0.2956577617628798,0.3060188713909426,0.31280452322632585,0.32703508896890915,0.3210406896595629,0.3144381204842304,0.3146331564811246,0.30756249925238477,0.32204783462374276,0.3071009170978936,0.35795972405444954,0.359447037740868,0.3245876352053395,0.33642830397840734,0.3106383458203189,0.31210244273932936,0.3432056735426924,0.3112680203609356,0.3178504763436324,0.3325293809664632,0.310721819088348,0.307794806781427,0.315027168446875,0.330811529298877,0.31725314313326325,0.2966195641918941,0.29250698351985904,0.3268386598710635,0.3247444413167688,0.31077443409418903,0.3156297397382033,0.2979356470996452,0.3206991673687253,0.32803733612056946,0.33026644748573647,0.3116805064264124,0.3214293827754759,0.3112584593155372,0.29673730253057845,0.31096497990858696,0.31545387875332076,0.30127689786162376,0.31772188708654003,0.3245016618580741,0.3000045317053372,0.3124534410034374,0.30208646291003427,0.33750509649217764,0.3146233832984803,0.30370039275042354,0.3003596850849794,0.3112922493734755,0.30337126327245495,0.30227668439038347,0.33345514192114833,0.3763326105963884,0.3265647364135388,0.30851767827625076,0.29927351846487393,0.32043402748265226,0.3103114784573632,0.32571021233948094,0.3132169346010113,0.3490026771150877,0.32051933056526066,0.2976423100785147,0.30560272409374156,0.3099462278418429,0.30986891799891125,0.2992535712970524,0.334513874797498,0.3144403627709739,0.33392719294302586,0.4151615954880792,0.32354315078080526,0.3166066789965601,0.3186061960633795,0.33480108486823823,0.35776156897359435,0.30893688873142827,0.3107154195184699,0.33450304243868295,0.329099695815937,0.3346233132415136,0.3809229611939636,0.32609863505967585,0.30887174737239104,0.3328853254087937,0.30843616801512763,0.332923798410356,0.32733856279996154,0.3211801870701793,0.33014711768080984,0.32281430098082575,0.32250143119006885,0.32115829851665273,0.3170699471571209,0.31512373170572544,0.31291540155830366,0.3152512223157532,0.3053236378918798,0.300340929524156,0.31732403200386466,0.3041695406523621,0.32348781898053136,0.3027964305506729,0.3059114074883088,0.3084821557074885,0.3183526001433724,0.31397774994314637,0.31738529341414506,0.3001552147568969,0.32632935773334043,0.29541502619264026,0.2978047959237798,0.30843644344067667,0.32795758668250563,0.29177030868396125,0.3239362332361314,0.30852734853060404,0.2898959881794376,0.31212136498882176,0.3220478650830322,0.30605028099594406,0.3013109468257336,0.32492400561184437,0.3297849131108659,0.33242663723118604,0.30708954946175315,0.32397509712952005,0.30803004267048056,0.3256235663223717,0.3087550162502826,0.3388449151722416,0.3207666916034623,0.30293831470512317,0.3446581655208192,0.3249259925545333,0.30669730034624415,0.32152080919982573,0.3109191082106904,0.29635359331793637,0.31806842980536953,0.31795055069668693,0.3115128266473487,0.3138183395300248,0.30867180489599294,0.32868041361014244,0.3076158479838549,0.3208366122187805,0.3270552885582102,0.3123993525010675,0.3329522393553087,0.32326989272261303,0.3475219920521321,0.3172139546090825,0.31361016983400364,0.308335628888292,0.33675088892600835,0.3290795972249184,0.3487765185034748,0.2934135008528988,0.338479334491821,0.3603212409554588,0.3044930802862959,0.30071729483641163,0.31716390296671637,0.3340703283968215,0.3206358794962273,0.31730541931338846,0.3425637545424638,0.319006310166321,0.29537686711849886,0.31307467773606823,0.306071697991171,0.30819072386149476,0.31657281906120327,0.3133590993385023,0.30449821239851355,0.30357022069969475,0.3528319684110305,0.3395511973255808,0.303589314068172,0.3125525809027561,0.297086607921495,0.31877578481085944,0.33975226118353924,0.311603921693542,0.3086577078252567,0.30611848516307116,0.3515714293624009,0.34665434540127155,0.30100331304030903,0.3148609143667113,0.302676586175972,0.3342331847981022,0.32675151204062125,0.32022772320398807,0.3141960735731594,0.3128430712460941,0.3120767430273772,0.3000592376136669,0.31057870570258705,0.31207697297776227,0.32071090451296785,0.3043915316166933,0.3292821379659399,0.3195412994448305,0.3235553060233725,0.3271347877275559,0.31185460614272664,0.2982952253413366,0.30856229924617445,0.3173859297514134,0.3106232412992724,0.30933307794622655,0.40039300045903126,0.3004024226775496,0.3412241679882163,0.30370669496159747,0.35874722915679425,0.31201671287144966,0.3147672256882239,0.32184575555406125,0.3106397199180301,0.31809268939920315,0.3113009002268247,0.29972899713308204,0.31366306135579475,0.331579201248129,0.3471614961443088,0.32370191680104593,0.3218256604487679,0.32697595965107984,0.3207822559597135,0.3243582859415407,0.3253202719561381,0.3226016730926597,0.33175697260103226,0.3663700726981093,0.3013534702183014,0.31247417199910626,0.28694624416988546,0.31092557225661954,0.3003829779480096,0.2990373508181584,0.3356140233686759,0.30957735617728743,0.3148687191321135,0.3135630226017694,0.3137959607684384,0.36844045893414756,0.3194153835530614,0.30439037730644486,0.3548850349389371,0.33235709985519735,0.3216725482314972,0.31403931409486746,0.34323735640762904,0.35980783557913265,0.2963725058248272,0.33081754765663207,0.32589214453697746,0.3004102770953703,0.31506641761955717,0.33341287577257595,0.30322410136955613,0.31383193694375894,0.3111731489363724,0.3421423392898023,0.30543796370021004,0.295800237259224,0.33240047980169746,0.3316535329706618,0.3188325237160862
7,0.33253088606763576,0.29751210401137396,0.3086049953915731,0.3215543459453398,0.3091029929851251,0.32741772663292446,0.3349256818386309,0.31144292246181715,0.3390015541855559,0.30654908150056054,0.3330291832656846,0.30510951713500145,0.32432553580464374,0.359328256697271,0.29951708394931353,0.31268956149467086,0.3133367347909162,0.32265797687945375,0.32542806454956197,0.3376316038924626,0.33721586392290126,0.3066712984704524,0.32022911181307495,0.3195908737384983,0.30557187746443265,0.31560046554770205,0.3047312597075952,0.3053377037192999,0.31286249272617833,0.2943530684870537,0.34254841544352654,0.3056975094068711,0.30700909452887354,0.3182044207322309,0.313674790487881,0.3228725120908171,0.32373414235663256,0.32139358308180166,0.3323232431912419,0.31207871427743855,0.30843272915419445,0.32848869111431495,0.33977195376771335,0.2990426427759506,0.33113458197692613,0.36295943140608206,0.32749891627588423,0.3246791050339409,0.3026378496484063,0.30483954990864753,0.3173235291635943,0.3039253672572445,0.3062929961046998,0.33650962635176745,0.33068410280916394,0.3426996532196166,0.3206556751786823,0.32037813345342026,0.3221486608791562,0.3102299502199367,0.31613533501590835,0.3107358950926101,0.36069982062759853,0.31032267831532523,0.3640095761762462,0.341761055071091,0.30836730797938366,0.3367469398110429,0.3281177738307258,0.3063979312128511,0.34203157170797827,0.33088330155773377,0.29808779526112966,0.29417172626587446,0.3185452827495909,0.3059192430818719,0.3215088844125111,0.32823071395458825,0.3068472867831457,0.3102560566041538,0.31952428374382114,0.31042305346726373,0.3715101266473155,0.3772047759000453,0.3450615336045947,0.2969444645192227,0.3211866949693839,0.3094078809941074,0.30128577117648575,0.3312656998816503,0.31330821144883975,0.31362374681135674,0.32475228398717226,0.31876220894574947,0.3052186626377719,0.3260420108484711,0.3129536233115211,0.3139692462845461,0.33945092342913763,0.30188073449174163,0.30676193696631493,0.3243511026422113,0.33939799534012194,0.30354310207217006,0.3784170074451918,0.3114880183797808,0.3264357692283494,0.3296850422410908,0.3038741024928049,0.3015325915683199,0.34684615251917006,0.34158422264530236,0.32133899731392584,0.31247710700208076,0.4054153956275858,0.3263187616329392,0.33142443514442155,0.30180843196341733,0.35020826886058976,0.32044248670113057,0.35214102919357027,0.3060602812422585,0.2956052462449298,0.31709986210683033,0.3086957542944012,0.31370130809642405,0.312087374797603,0.3303945456894094,0.3169603696071728,0.34406041822573663,0.33994290890083706,0.321250289618617,0.32145782747271673,0.31274315215183407,0.3127656106460463,0.31958895420401895,0.30265936566214324,0.3428373102615173,0.3124268599757537,0.42091607956961363,0.3053568315468632,0.32378752351213996,0.334059428974068,0.36020836144399226,0.29942541509296977,0.3307518932535803,0.3597092962355668,0.31517554941315623,0.29740709659511416,0.317828175729706,0.2998656975770982,0.3212590747114771,0.3564497029352905,0.3400366270152534,0.30175804040155524,0.2994371881458978,0.3308249947827784,0.3341511413173211,0.3036452446894742,0.31348555329207206,0.32558085166357653,0.3068101666055604,0.30070868772448384,0.30491139808367496,0.3093158777884112,0.3068539087361774,0.36108441699030713,0.3256392325421043,0.29448241387318475,0.30708863488134125,0.31007162048261805,0.3230954784245387,0.30175876597487405,0.31528067566862655,0.3223516643165376,0.30628936294165643,0.3031737239181295,0.32989173619166795,0.32257427848597586,0.3080078097903785,0.3048663710829541,0.31390676136487006,0.3119782274081642,0.3324805591641506,0.310440029734929,0.34201111814237983,0.3147952704594624,0.3344003798479021,0.314324176479141,0.3039086923467308,0.31987607627005715,0.3149273686112616,0.31630332148356466,0.3165197003731292,0.2919153168362811,0.31078595800373454,0.3381248457231025,0.3141136006627036,0.3027601511341992,0.29829692392011453,0.31611129303639496,0.2993179355865161,0.31960816996581354,0.335724185466248,0.3160214984543777,0.31588853565780806,0.3182722240550282,0.3480252408645256,0.3065015413997301,0.3473543805187841,0.3093295506911046,0.33036197495170294,0.317320481066248,0.2949651965026573,0.30741180987729616,0.3314681294302386,0.31269913857554993,0.3177532068349297,0.31528964024611206,0.321844235429251,0.31801816066404776,0.30066540084378646,0.3059842278681166,0.30240653560167535,0.331546826462676,0.2946449690614878,0.30612334260383284,0.33856333613248274,0.33259979292757036,0.31155610462525263,0.3059619777873718,0.32961156053548324,0.30316883443360265,0.3016806325402612,0.3100839937311739,0.3111363057924052,0.31746860887881867,0.343083314955411,0.30423636597077625,0.3057984937805367,0.2868102051178913,0.2989114323415145,0.31975106527213754,0.30789346086673003,0.3162918151261276,0.3469453776855104,0.31816003603510123,0.29959130798248296,0.31717903067920605,0.32074860854421156,0.34319532846202805,0.3065210434077746,0.323482628625474,0.31048351220436443,0.30692282493774675,0.3055399740751358,0.3845974831659767,0.3455411552170716,0.32661403167808317,0.31330591692918,0.31580430045475083,0.3067955688398358,0.3336192933123835,0.3085515988507311,0.29691601098737674,0.33593441647794187,0.3182175360565276,0.3122167115331883,0.3178704550471295,0.3064488184476434,0.30416466826920047,0.32032467914570645,0.34873444924749947,0.3485934056686618,0.313616373703777,0.3154647199946088,0.3148108466291728,0.3135922765782752,0.3007261429187117,0.3228125894846006,0.31308362473030954,0.3025684408530233,0.31591633213021086,0.30492456705759696,0.31696813324605555,0.3325462047597914,0.33791000685255973,0.3227661673070335,0.3062224127369085,0.32798152030896566,0.3012574017844215,0.3359217545333921,0.2936391861975488,0.3017956382859681,0.31164290428513075,0.3480817681827698,0.3146036196205776,0.36992239585403636,0.3690419489032448,0.30807991145479724,0.29420088403522254,0.29887727300658085,0.32894552766630747,0.3472162520249199,0.32882444759430496,0.34677484592235064,0.3119936399912586,0.3003619113470484,0.31041377921141877,0.3312736920931686,0.3413915399182021,0.3202320531882689,0.33308380034519114,0.3131526335432534,0.31260491266956203,0.2947002927326011,0.33137444619810286,0.31204486717070595,0.32022297545505374,0.31555551197752674,0.31033294784823734,0.3358057071514124,0.31300621630008807,0.3147290502586618,0.3132249379339111,0.2904911992326943,0.29378280439518295,0.3454288946134877,0.34004066959033363,0.3175204175300472,0.3003917389874407,0.3297103634810953,0.29593571910331135,0.31744059776182426,0.30259899293472137,0.3311237051434926,0.304685156174601,0.31071772937308595,0.30909679161935266,0.29553157153832355,0.31591636821471275,0.324602895019467,0.2965300647539841,0.31594450232950105,0.30965515453328857,0.29912605854288155,0.3060574045864474,0.3259013846876395,0.3216612239758927,0.3056768446943866,0.30147039288390964,0.3168675571680889,0.30707074655317945,0.31564202075864756,0.3206912486643404,0.31247501739793104,0.3030511438045432,0.3236731799672364,0.3426970403702218,0.3073134365162348,0.3030785968616236,0.3393957547516263,0.3169800377407665,0.30026736691520955,0.31478679845120855,0.3244369572732365,0.31377551384315744,0.33920140868225396,0.3087837961640939,0.30654157297176116,0.31327119836722966,0.3721429323266815,0.3090235462473397,0.29930323623037436,0.3059831199821541,0.3006738157301892,0.3046113222272609,0.32638573606252774,0.33047175805552254,0.3455665706566605,0.3297038711296437,0.3256420478643402,0.3143019311421774,0.3687997600618923,0.31384612297871,0.304213922961042,0.31024806290539014,0.3104129787155154,0.32073395424971995,0.2998287388148659,0.29839324921178667,0.3126300025805228,0.3069768919034163,0.3248227376051126,0.3309823071473287,0.3246423947895545,0.29912322769310856,0.3173322691415671,0.3246119492971721,0.29875105302303934,0.3074976492992797,0.30768175634922124,0.322616057050913,0.3083121513376953,0.30594643827994555,0.38904971093770907,0.40639056107848753,0.3268628932578164,0.3305227128829774,0.3205285814616686,0.3101608928176728,0.32635738955525995,0.31341366294194495,0.2888159946472909,0.2924129110870362,0.30694581847839914,0.33259959639387754,0.3163298288742648,0.3065429108069602,0.31012275517164045,0.3514400371946161,0.3074414259903922,0.35124290871511304,0.3134754522523563,0.3352111383603266,0.3016866910390114,0.3046608906005363,0.31033914849653554,0.3044140764894003,0.30123119019289085,0.3126438210953646,0.321887205207055,0.3301824785123987,0.31740599627819843,0.3241789980189026,0.3204463698120561,0.3074321403736303,0.3036202489591662,0.29122276619180065,0.33241471237407827,0.3117319716548983,0.31453276508521844,0.29140669325246077,0.33133323990938124,0.30991533367142937,0.30436809620843713,0.31242327058964925,0.2948096552866103,0.3216944238065228,0.3007356294039606,0.309748009294849,0.2960759574536,0.31340508728735006,0.3254857794150106,0.2972353906291413,0.30839773625524225,0.32783445891653507,0.3045454637527518,0.32982084354196756,0.31032042482988853,0.3374582027302236,0.33650917338340103,0.3200028300077923,0.2977344527112188,0.3421751100000759,0.30981857127383916,0.29883000430145457,0.29540089158355654,0.3223471797968894,0.3065733216962049,0.3081559895360225,0.3181585145934652,0.32024979128182196,0.3180693468502466,0.32774445738788816,0.29985937081239633,0.3244220470594438,0.3464846836531235,0.3012080790478842,0.30924937787813117,0.31400648783782753,0.3185285525088798,0.31193735185592697,0.339929388591513,0.3179710319608051,0.3136575911071424,0.32604925028453935,0.2905490507857898,0.3050321019604447,0.32719668665045903,0.31244596399929675,0.3166208706639054,0.29173159371233365,0.30510872884919926,0.30612749687718466,0.30021869998449596,0.30229277238868135,0.33601235690418724,0.31716425121015485,0.31502286671693375
8,0.3112956422835687,0.3444813815807663,0.3084562940899756,0.3358219319414248,0.31172984373708623,0.321497174806683,0.3204895360337798,0.3002937329591308,0.3121725153519964,0.31011651612993346,0.3267336015546913,0.29961117570138773,0.32727452444721783,0.33545430733777704,0.3009858452459365,0.31987189921593034,0.3119104272789755,0.3000758998257153,0.3091909104230428,0.3209191427152213,0.30758310768151625,0.30869701944678857,0.2966119786367692,0.331570100078243,0.321931890224752,0.30867273438073384,0.3212484979340634,0.330316104910377,0.32768694245343866,0.30353826248434906,0.34116881777570074,0.3028379081299582,0.31274058947338557,0.3116776995657125,0.29546646732898924,0.32381564591456136,0.3141400363047465,0.3187207381367424,0.305263849541055,0.2996176717312378,0.3208569371859838,0.30689559125487803,0.326420342702637,0.28758177493829057,0.3017885576367254,0.3076999962037574,0.3077141444729918,0.3350039142274358,0.2956651090950805,0.3188085161890344,0.33396577805342276,0.32154635473152676,0.31973191013941454,0.3393228349931015,0.3005555603035332,0.33228424305201293,0.3363628229156964,0.31383027697136934,0.3112831291491412,0.30651933154650546,0.30771048430100006,0.31041606722992615,0.30267957889368624,0.3386692633882657,0.34092431687567404,0.3231252651829365,0.3142784350106988,0.2931658738066817,0.3314580696568627,0.3169966574895407,0.33826331056218273,0.3412624243972952,0.2959042423940765,0.29820992551476244,0.3248398621365209,0.3154509955462937,0.30421888071148206,0.32851877327861473,0.31779652795975816,0.31731794997171786,0.3056071937973791,0.31853919270362174,0.3711626255228591,0.3505300125763244,0.3060585918610632,0.30964939281143966,0.29151655622118133,0.3066705426227771,0.2987400492818611,0.3409473735264651,0.3059746795886199,0.32009894890245927,0.336417583838328,0.3132866013311276,0.29723843918095955,0.3223893945210513,0.2958709977786137,0.3091672115674991,0.3209316519167278,0.3198445495535446,0.3192292181355395,0.3324236072820412,0.37706530246342973,0.3251386914993468,0.31723222414654817,0.3101190309649279,0.3024878660387591,0.3079388517967926,0.31265867653222323,0.32315239162509835,0.33715552692355477,0.3208059162719022,0.32170719366814754,0.3199588350645043,0.3318047902968208,0.3473557406371193,0.3333606105774686,0.30482600036490115,0.31280838049619264,0.3102974451773959,0.34653055839638786,0.3195659652863014,0.33478414695254943,0.29688767619891665,0.305293861500883,0.32654701230108885,0.35858136573362,0.319812299652804,0.31368033697082,0.3584832617030326,0.3442894624336161,0.3108715902060716,0.35678635335684833,0.30897325118847135,0.3186587424287387,0.3407426130250838,0.3079127791544315,0.32398152571184496,0.31674392111435856,0.3733584033990107,0.29318977696579707,0.3609863344539996,0.3314241956287118,0.3719845835231839,0.2969834643557041,0.32092060878982337,0.3974249201734611,0.30956987198196995,0.30647531941542705,0.2948475631568671,0.29457777609523017,0.31573240220800264,0.34285054997212466,0.36220835144410807,0.30087518671197394,0.30642909373983096,0.33072032774603644,0.3304378119339024,0.31409056269970936,0.31783864965632647,0.30094218212746915,0.31537476901856654,0.3104691690260879,0.3103564057414846,0.3121627535437671,0.32691212226970945,0.32592395609057967,0.3436485637070872,0.31565422086074896,0.3338965503679726,0.31626402826459044,0.32757073828527805,0.34689146167911145,0.30292308684588987,0.29961041414592776,0.320535620889468,0.30132212152916754,0.3277288176504038,0.33969135592378563,0.30443016825786423,0.3063047828516073,0.3219613758803291,0.3045315975587072,0.30393617233413794,0.3230835317974933,0.3538154905103939,0.29695730298178147,0.3075963996390593,0.3276314127763139,0.31080083413687565,0.3414706101591257,0.3199047230191524,0.3243913680286547,0.32317975442909985,0.30751633424719566,0.3174235367598032,0.33222733659150167,0.35826022090408516,0.30003885138728903,0.33340345504666974,0.31474694508537415,0.31308979025259787,0.32184296132883083,0.3400683446543726,0.3333950494499202,0.3114709822725049,0.3174637094928433,0.3459983790445817,0.3476653363891279,0.3449781872288313,0.33381622043355663,0.3559686245549692,0.3121194911255095,0.29846204377229735,0.32382802313991127,0.3134994857212675,0.3093041522935444,0.3049691780162268,0.33538505408346353,0.32418748830103933,0.3716832148700945,0.3224748158242645,0.3057963764176217,0.3035404436188917,0.31673016524237374,0.2953772165600099,0.3450219368661192,0.3189242837704647,0.32402228009648154,0.33445554813995043,0.3316949919116952,0.31183937012014856,0.29547525923276263,0.3146860212152582,0.297862496934683,0.3407476344926376,0.3020418746800434,0.3492928426262935,0.30677210901445695,0.30292421707432304,0.29119152353799416,0.32427131126439057,0.29802370824997715,0.3125489895613691,0.3382098940652361,0.32861291705306966,0.3454602426218409,0.32543774684449167,0.30723995248279656,0.34032581647967297,0.3250556085920872,0.31501241279199865,0.33592744295241384,0.3102004600784786,0.3113726536688246,0.3139152971569667,0.3374705888948007,0.35862171807176646,0.3102554133982435,0.31783940055737764,0.3249002673801158,0.32175107191630314,0.32129192139047336,0.309797370215844,0.30304684682959887,0.3120560425417046,0.3284815215851825,0.31471945167677334,0.3473654573186095,0.2954899365682361,0.3168368072061307,0.3001078536117009,0.3650397408017346,0.3142462641595003,0.33245629178995617,0.2991352510000379,0.30825752962280084,0.3254296933752861,0.33208221634784063,0.33302901204243823,0.33698812307221626,0.320830890342118,0.31967630858752166,0.300677504433846,0.3157749567695872,0.31204002492520827,0.34119922114496853,0.3128092064657258,0.3223767105107421,0.3143060452850488,0.30562210561359626,0.3245917116566335,0.31408499600153084,0.30890347913042904,0.30430067832067464,0.3666005594725121,0.3542741612965008,0.3527966167874211,0.3422022800662743,0.31576485336912224,0.29899366830733226,0.32146980158762706,0.333647529687171,0.35594795220846165,0.32624711942835855,0.3324656558922623,0.30484171849442154,0.3121357108125023,0.3088113380687375,0.3739791206928391,0.3275214008633882,0.3317084628735777,0.3109478942981107,0.3102780167428146,0.34441656045872865,0.31567648197737824,0.3419568996928201,0.33100303320787505,0.3384640806750899,0.30711075860011516,0.3305375921137492,0.3450583337342707,0.3354667948675348,0.3050458148606478,0.3058199188910832,0.3373243714362471,0.3022936573478501,0.3428306499671201,0.31457643087667214,0.3198818525082202,0.30483157920829973,0.3543633406049595,0.3043768253042048,0.33334025319165217,0.3002942577315413,0.3184780183430734,0.3038835004157929,0.33328585951794276,0.3043154275301167,0.3080786423306318,0.3145852228403258,0.3363634068704839,0.3085751979830748,0.3215606533809249,0.3021559117959516,0.33745912380946563,0.3303425129655594,0.3114337053345855,0.2970449267826826,0.30347899319179883,0.30968843001545376,0.3118769103498416,0.3186486102439599,0.34017513325663973,0.30755167647976456,0.30702434625477865,0.3143586136650208,0.3128687987018344,0.3120756879065041,0.31019155872101617,0.3053878932295387,0.342403316110073,0.316755601412663,0.31274537027591953,0.3188956865741128,0.29895309707947193,0.3023045931902161,0.33275804902595263,0.2919178374768927,0.3385268067353285,0.3184439404132723,0.3142666089765351,0.3100252916512092,0.3096547421339943,0.3046912372011515,0.30776218829540847,0.3325346312905271,0.31590613031777043,0.3036334946754644,0.32607362790089545,0.31233123681151886,0.30286567872097414,0.32859031651768794,0.34688853185049956,0.3395218255138678,0.30766812428779877,0.3112044126992981,0.31584738060055195,0.31783785774472356,0.3145894444632337,0.29352574601354353,0.31591979427647227,0.31628983260563415,0.3061696920726532,0.3224309939492854,0.3383326544726508,0.29385009627404174,0.31051675362569336,0.3053917918237651,0.3007089809151415,0.3035090049447578,0.3175741649036758,0.336652204438392,0.30219415708797115,0.313498756827429,0.32603933234185506,0.36820268374496645,0.2970978207116094,0.31913635355318415,0.3178824163732978,0.32450391914788207,0.3219512815405351,0.30139365703666926,0.2909271956649031,0.29310201850551876,0.3153131106744702,0.32334083413726283,0.29302989035119,0.2979659842992455,0.31113633548078956,0.33245654602406377,0.3006009397060573,0.30483179024627005,0.3027621088143375,0.3085197110488419,0.32697113391609006,0.30024806416622696,0.3053317208293198,0.30463319662445426,0.2964427277512852,0.3048765491200767,0.3372692533641528,0.35599013291793785,0.3283594040112229,0.33317489452393617,0.339452626615664,0.3082262656465903,0.34776970943774177,0.3155211302925456,0.32627525074937175,0.3026030595112294,0.3118231873972744,0.3046174331748515,0.3322068591199828,0.3130741844249725,0.30348234198714985,0.3191329507079994,0.3059347238693704,0.3337209099509661,0.2906491828085949,0.30978349806455774,0.3102752191668768,0.30949378989301896,0.29612671939661583,0.31842543409849744,0.3118413644403214,0.34892485888035185,0.3078421094109023,0.3452542740542916,0.3180410658575189,0.3037728397318039,0.3598793375863384,0.3158287448791381,0.3030476172864693,0.37398994947636277,0.298748905853684,0.2904423297044212,0.29028840926086097,0.2946444594336868,0.308597160094995,0.3116909027098421,0.33530439841116233,0.3043776354203599,0.2937506720198262,0.30304383893154874,0.30566614599506986,0.3426427978670268,0.3242905243694215,0.304639338336007,0.3326759659775905,0.3108290598992566,0.31856873167451905,0.31960153169331046,0.32829019023534106,0.3510849507203488,0.32162075611019814,0.30845769613656143,0.3026384184741748,0.30265864039810086,0.3311827151762285,0.3351818229367857,0.29681304569983247,0.300519483175085,0.34066374843764774,0.31531795047285593,0.3217216175678171,0.2921542253144619,0.321941554104193,0.3109315132075875,0.3208055266469475
9,0.34077822945628167,0.3019535107694521,0.29183137234354045,0.3186628516384796,0.3237011194716334,0.34139369520099233,0.3182538064895353,0.312290166895005,0.3044624402142534,0.3186259446548627,0.3410504485446445,0.31250331224771977,0.3447517716802234,0.3278085398032515,0.2925421217633962,0.3236355139265879,0.3165121491041957,0.2965104831899953,0.3177066988931994,0.3224981563723149,0.3194962521484892,0.32147102132546174,0.30130779745249126,0.3041506119902414,0.32894532928952636,0.29762476606224164,0.31958891271114054,0.3081786520457731,0.30524411688482844,0.3007428647605699,0.319293582946108,0.316571791191654,0.31501371765996766,0.2964099535111231,0.29019750119054616,0.31895990044103356,0.3584317231359827,0.30690991246111005,0.30596344969993267,0.3301187804932046,0.3355959145104733,0.3198239296855602,0.3375978173502447,0.30231764221908153,0.307318529096542,0.3342979571171955,0.306031552100866,0.3280735157444911,0.31329077978773656,0.3197146789312951,0.3362043939261348,0.331902709378687,0.3099468652123593,0.33241735988716525,0.29844892738289286,0.3257395238696668,0.34613434507930696,0.3142694417358102,0.3184986698241556,0.3302666943484858,0.3216778420037985,0.30725522905551106,0.31699309720726576,0.32536261184177406,0.35924420496762555,0.34307562541380376,0.2892728637755497,0.2968248931728941,0.33069491047433225,0.306394052563703,0.3062620513316815,0.314651703657659,0.3207976878683728,0.32417642973846517,0.3200279310835294,0.31055348277733624,0.29839533867984225,0.3202368915122598,0.31743730663849756,0.32208221424839745,0.3036392425757247,0.33537464082946034,0.34178885959741645,0.30852928244568045,0.31430230755907973,0.30474856934698275,0.30274054101035935,0.3282123800881406,0.30318198524137563,0.328327130129828,0.31741498037880356,0.3274046662287483,0.3371125368134977,0.31219347945698334,0.30739170771794866,0.4007406396649812,0.36026127777584527,0.3140830049419837,0.3470042077657889,0.30750566693246034,0.2926277022505825,0.3104190055866763,0.3730766860990541,0.321695177922181,0.30000945309938454,0.3167202409229221,0.29803775414156536,0.337188711532843,0.3117399158190418,0.31751474300049287,0.3258207938983283,0.339662004311318,0.30577101257916334,0.3042669766447436,0.383634188787306,0.31427043547354333,0.3355488738919895,0.2972445041827999,0.3163348345813307,0.3076696148698595,0.34323130959595843,0.30114618808096616,0.317758851018248,0.30924551186588073,0.32421647937907994,0.29622300626503906,0.33497333515640365,0.3103848639567168,0.3077920079018579,0.3588254865196665,0.33599560032671505,0.31369845045439915,0.3276867060404867,0.31161714824053716,0.30616875721620873,0.3103870139669235,0.32275820096744895,0.33500555798178727,0.3283801134436048,0.37257422046148025,0.30842887443398076,0.3356311004516934,0.30949378272406164,0.3396518819628282,0.2912977746279363,0.3355281571790804,0.34646389649267995,0.315469678018624,0.30417229435576126,0.3137665630948311,0.3157930481160992,0.36182453184483354,0.3524986950198147,0.3387991314552005,0.31610822210195877,0.3079294130300743,0.35130298411633,0.3334528694921052,0.34679363518179157,0.32865020966130376,0.3181855602116159,0.30629212763606833,0.3112418842617356,0.29963274870497425,0.31701735159991584,0.31504245946205567,0.3539238125235381,0.3362272191365451,0.28937089245762027,0.31732343637600924,0.33812500746623,0.31776471803175316,0.30631595289776575,0.3239908225269076,0.30134382987115477,0.32621366121549533,0.3062323368126414,0.3198214869906917,0.3149745137584836,0.305424054530474,0.3060932423120772,0.3383189169408531,0.3354999263869282,0.3262541491695125,0.32005815534147386,0.3246322833070448,0.30217046727131197,0.3343336777148315,0.34661278577794596,0.338483436706861,0.3241021689175799,0.31724031714275125,0.3254789337590972,0.33806402928298784,0.30363419287040383,0.324450615221613,0.32789854102155325,0.3056679049099872,0.31289745489376025,0.2950030494935977,0.31739414069730054,0.2939727065680534,0.30442162414429075,0.333920147585442,0.3431000471666126,0.31386912534168043,0.33045951242215843,0.36815682002806976,0.3239915029602228,0.320512767632327,0.3192484363506799,0.3456040908684281,0.3057615543952153,0.3136217721216964,0.34378834992091734,0.33283170049579125,0.30131164213992656,0.3053253505026247,0.32066230673677154,0.31691810616333793,0.3126510468263957,0.32787255466234366,0.3055749877419512,0.3050574599229615,0.3258279192929397,0.2940518997580374,0.3426324160557458,0.34778637154209485,0.33381049339435864,0.3504183826806068,0.3073101964270688,0.3476657186952884,0.31025358456769847,0.32579284473061815,0.29551186620502823,0.3460876181623901,0.315775049848968,0.38362459968061535,0.33839555028392543,0.3286528721496132,0.30247825278406076,0.319926892722575,0.2938410214267818,0.3251679263164342,0.32149163383312196,0.29777744004138756,0.33136819480645413,0.33330534754783814,0.3136969773497141,0.315363113912921,0.3164076574074851,0.31260050583297405,0.3230111895574438,0.3130466748861309,0.3050978388150802,0.3187317033091827,0.31285472179932683,0.3850052480669103,0.30502094499272175,0.32120460419211005,0.3377108965436867,0.3147490645235683,0.29864685916335676,0.32414260465046657,0.31260500236084887,0.32318355463374115,0.3192043047768645,0.33621454165857395,0.3158876983099779,0.3036244620633567,0.32373943390158855,0.31565434975667517,0.3353871394101025,0.329226274778602,0.3095872736748347,0.3072287894810105,0.3147363301220273,0.30904432994255426,0.3124720471614665,0.3188521655550183,0.3200393578444197,0.31732608869907586,0.31271826050499435,0.2994713940427368,0.31012831171017907,0.2998986428455205,0.3175819897383246,0.3096527642732591,0.3082100615113447,0.3274510376674132,0.31060527433335267,0.35342366403043945,0.2993315812983707,0.30498515396841197,0.2923271411341636,0.35244702297765307,0.3069184412015599,0.38386054378276685,0.3256648778710476,0.31338775518861944,0.3016410003985558,0.31657326667754276,0.3254751048175799,0.34444516148730797,0.3539250408271861,0.3074462573021065,0.3553164575828479,0.3160493650476544,0.32483653979639726,0.324274181706509,0.3284512354347478,0.316807610502929,0.31407079575729896,0.31502042588792645,0.3195898034512441,0.3009178321043477,0.32322012121076543,0.3020175362461554,0.3465637435442036,0.3267464419517805,0.2997543073333946,0.3204769623997241,0.3010500151642387,0.3132952316407335,0.31446877521447847,0.29722763842123967,0.29033992114967244,0.3476582373183798,0.32107254797672924,0.30444325286033197,0.3068473088159762,0.33230414277599185,0.30876999315392095,0.32296687407727853,0.30183822878674416,0.3271902341835828,0.31757957370579637,0.3003927286860301,0.3043957435677969,0.3069884164448248,0.3052458702071591,0.30068249575869743,0.31896917667328595,0.31108120686044616,0.32114284261109666,0.3035366799327185,0.31871370696202245,0.3304308399243484,0.3178740609213672,0.3012205195637726,0.319129053326215,0.3077608369165038,0.3129797331352963,0.35741850889314153,0.3326093737939217,0.3120146623302414,0.31143885911102676,0.3167502460265773,0.3087748867831809,0.3034251610166675,0.302899513424343,0.3402402822939069,0.31433545152483383,0.29724773192089526,0.31594068805169323,0.2970269096286018,0.3000716759132453,0.32683030298409393,0.2934012524224523,0.3329854834342646,0.31962678114717596,0.3179704983613501,0.30696768809519787,0.3080099529788415,0.320658668961841,0.2970800947070126,0.3003362983031061,0.3215722681249008,0.3033176605176827,0.3206925087533855,0.3141300279958291,0.3082602967219178,0.30568639715351326,0.3863146996730641,0.319945616913314,0.32293077772748424,0.333170572984065,0.3215998388444681,0.31468139570730436,0.30221729093273275,0.30850585158384985,0.29735105821651486,0.3213077588456176,0.312108935071914,0.3096295223280311,0.32068693035397977,0.3050178491140022,0.3049845726681403,0.309548859848304,0.30686335552058275,0.3108456534193197,0.3537520621536642,0.3079466477487876,0.3028912034661292,0.3009137779700787,0.3414737854094502,0.37338643675059097,0.33021792869515293,0.3045353920985995,0.2970393469615016,0.3125684882834312,0.31928433262732836,0.31018189148019204,0.3086103496005014,0.30462908977918535,0.3310558911462555,0.3274765727887227,0.30268617073586956,0.31678967250514845,0.3079947772335873,0.3427811607334062,0.31253546598883925,0.33748884250673455,0.30393049842762754,0.30466622544950245,0.3080844548174103,0.30307431618424907,0.30257446310840713,0.3103014272223895,0.2976108383267395,0.31230029422228983,0.3220348705819365,0.3265537227226006,0.30647577950253935,0.32265285552926526,0.31262463431475535,0.3083524680581734,0.3593012465053413,0.32215055428176265,0.3345749019153131,0.3128041295707178,0.32801193800090195,0.2943317268054817,0.3227420450870369,0.2944809283375763,0.297092788936959,0.31286036447091936,0.2965612576103542,0.3361205467553606,0.29609944238095726,0.308317393926372,0.3194965453801659,0.30439719993820497,0.341262729782798,0.3151598864603962,0.31501655446682914,0.32031827585571626,0.31941064995232027,0.32862812051850343,0.32889706879978264,0.3083307696943408,0.316520301797998,0.3262576997887616,0.30034590868809097,0.3525708180294601,0.30476667048012157,0.2892135013756951,0.2932167187911189,0.2973918449668066,0.30719493902044986,0.3136742997885215,0.32271107451036024,0.32523496511147665,0.2985061242567236,0.3102075253840923,0.29323769051916154,0.34243579985481165,0.3134103304603381,0.2971936214156955,0.3084710105679008,0.33611838188232135,0.32045100788913794,0.3128278855383555,0.3286703473070138,0.3254407833147467,0.3151276328005754,0.3213975713605007,0.3258912239289149,0.3013370069332548,0.3202673423042189,0.36592637457387944,0.30527147775011243,0.31406324900539506,0.3325102499006206,0.33950837278747886,0.3284269675858233,0.29266662391053805,0.3873575032236248,0.31156697014361645,0.29611304252828197
10,0.3168616598093642,0.30253919176653205,0.31014094969245065,0.34172292535909593,0.2921758465376133,0.35279069984499956,0.31268123269162384,0.29603222428452886,0.3157857782889208,0.30224712465678394,0.31555777569800514,0.298437558786193,0.31221592725896946,0.34131705030420684,0.2950652403458976,0.3038894699346216,0.30398403484027964,0.31260720033118716,0.3252340065355904,0.31851074093698345,0.3184220113007259,0.30778726563600456,0.3027417970423213,0.3222850489410324,0.329503228488617,0.30952117608090035,0.3042351416398964,0.2965207047688476,0.305758213380741,0.2955674276754623,0.33114500217586346,0.3196235517461027,0.30540372095594437,0.32357493102751506,0.294068638117707,0.30128777081048214,0.3385447752168738,0.31903358314370145,0.33647529872131704,0.3117247631247463,0.3305918643266951,0.3084821591921673,0.3086120050080063,0.2881298026083009,0.31383444886537887,0.31183746200626905,0.3660926245206238,0.3907146320877549,0.3059663974230233,0.30291254242600635,0.3190986937776693,0.31779751944937573,0.32723208932761066,0.31303257253116384,0.3103151102097057,0.29943917327214453,0.3450484482708179,0.3241646054299671,0.31578450300937055,0.29717923156348236,0.3247790583865685,0.30905900594060026,0.30618167564609894,0.30551314613913017,0.36173474591608357,0.33359876051890797,0.2960419142888765,0.29881345845505713,0.3297022211355579,0.2971437952271212,0.3042235758020872,0.32399386229656396,0.32156690752880546,0.30664229673718624,0.3525425848402737,0.36238198517776715,0.30710854881268534,0.3166334539237993,0.30510722666861556,0.32584247819760065,0.2990185646110808,0.3364442416571892,0.3482806402362062,0.3852491627137928,0.30576188606742893,0.29828645743697385,0.31704898273491156,0.31462993974974324,0.30256714820296404,0.3442749013545608,0.30492984473614143,0.3281192547021081,0.32673611680553905,0.3163903330330845,0.2961284511957689,0.3714928234462224,0.30445913877406955,0.3254343772306468,0.3611450659069538,0.3402066456964244,0.29865831649376057,0.3073020538297232,0.31793860025052784,0.30259961238381294,0.31497019379605407,0.3020440875479014,0.30979296109141385,0.32741982889310106,0.3045362584486583,0.3073286179751321,0.31987634081478394,0.34040955237315323,0.3061411577151674,0.3215808055228767,0.37476548042898433,0.3309154924173419,0.3382747873188742,0.3099531853028462,0.3029339986598448,0.3243255209871597,0.3323905044844896,0.3114432101873278,0.3105666493255589,0.324644050607757,0.33572836366061237,0.30744401219081774,0.31650670944868764,0.32343969418092977,0.3358280193712991,0.3434085299923729,0.3223825204919081,0.32715583704542606,0.3515184090127321,0.31759413703634465,0.3105548923692714,0.3203864865127297,0.3052026493167246,0.33497009174555464,0.33689568966445493,0.36780672130144965,0.29370644225806575,0.330955669697499,0.3303861608227135,0.32311744427782474,0.3030940262405661,0.3268968699210952,0.3242897759127598,0.3376166866191201,0.3053946903026604,0.31199848539874053,0.3138798107195038,0.3325406317003507,0.3582872593123231,0.3522849787807234,0.319121332112326,0.2963804220543788,0.326269507034742,0.34797250224836146,0.31135992839508897,0.3322358144765992,0.31552341709057563,0.2959866096372913,0.29496528456563614,0.2944838418285388,0.3090328943610682,0.3100860013192247,0.32670174673532026,0.33562248497797165,0.3008945181275201,0.3200827445983483,0.3465619394712326,0.3115806650972588,0.3093731651977226,0.31779543646327413,0.300896607190534,0.3162121537371363,0.2971843437624944,0.3150805029745477,0.3046334334394595,0.34086127129762644,0.29011023972700184,0.3381563116027481,0.30509657492478304,0.317202383791775,0.3180779349750176,0.3624580147616817,0.29947406950289024,0.3224282809905449,0.3094070488629927,0.3233408779850563,0.3006644649309816,0.33383066944665807,0.31380847371947246,0.3140815016858821,0.30536025445487597,0.31903145991020737,0.3173558505540178,0.3243590310243334,0.30923527736106304,0.30592701991274696,0.31270604622154546,0.3054624621439544,0.31221790752182643,0.3283364661422242,0.33047407410879914,0.31506872594161534,0.30904456992261736,0.3426694228889551,0.31880114440704616,0.3208840504283184,0.31383122690474047,0.3496686810223146,0.31741783359127046,0.2918889328970054,0.33547577951479324,0.3066915192859726,0.2985829314899681,0.30424305298195,0.31725621437951246,0.31475301254418353,0.33179672484071765,0.3159988755974637,0.30900485314749476,0.30336515273973846,0.33120150848386903,0.31680506523475105,0.32351529708173316,0.3440228602929309,0.34626581722384764,0.33137390485343077,0.30517203923915226,0.30629139072657163,0.2965367619269931,0.3507577608680821,0.30016061288854595,0.3356166569040648,0.3009875475182073,0.34512994605322844,0.32473693600834186,0.3117995118146223,0.3070328267096972,0.30403359709010974,0.3227992701136244,0.31495388135456076,0.3127248411189094,0.3147808579590484,0.34075489974936085,0.30986275283311077,0.3003103719974904,0.31359176453125154,0.3217156099684163,0.3146774449583883,0.31724096993542095,0.352939039484843,0.3255133485537126,0.29653615342450135,0.3204006302041179,0.3609976214524806,0.3168749513333353,0.291168737792079,0.3102505267818604,0.31222885864766725,0.30333515962647656,0.3134313916186461,0.3019242845241802,0.3240983492742924,0.32261895177391353,0.3083867535692448,0.32473548324899826,0.3005596759181046,0.31145291787106705,0.30563294362341026,0.3500307153930624,0.34546674048050224,0.30658726449970564,0.29991627374689295,0.32071140437749157,0.3242834035243726,0.3357049204196775,0.31643760658435666,0.326254627522315,0.3347083348551917,0.2992670564718434,0.3358946505627626,0.31948106120933006,0.30577051299161406,0.32523221901129523,0.31448478631024407,0.32860007437614713,0.3109716988910208,0.3119142331308551,0.3295437746388278,0.3062205960000369,0.3025644424506527,0.3134756225747258,0.36347796367790686,0.3023564249706504,0.3516750880354765,0.3749455586003138,0.3046051210084837,0.3115041964165302,0.3066673298336142,0.32249617377877315,0.3328528047582296,0.3359886517951143,0.3165886191135925,0.3121184840274149,0.3105937174271149,0.3140423912409714,0.3503790267449737,0.35516382317776,0.3022125534756946,0.3176885805228752,0.3120328329148052,0.34100205005519946,0.30098774072982126,0.3161451942443262,0.3255570018303326,0.3168466401437679,0.31010764668338625,0.31291823175368993,0.3083669699953893,0.3108540346167893,0.32698288480246596,0.3062823294771859,0.3021906680625092,0.3172095690666794,0.33274127184274516,0.3266700792304293,0.3306663605524152,0.2988314739829806,0.3552282126539191,0.3025325750464808,0.33191233619832905,0.32094743204876414,0.35679005575811806,0.30674257196876537,0.3127662241532735,0.2966024394391352,0.30561157311947623,0.31772638267323255,0.3430255247560833,0.3135558794660751,0.3130807714437031,0.30959928986672935,0.3003496137026217,0.33432085084897467,0.3125341255518027,0.3201061159865394,0.35044116968544153,0.3201074865567944,0.33969025565102684,0.31757796443833713,0.31831484507890956,0.34100762181889993,0.31300463110192744,0.30951832869589824,0.31031224028133164,0.3053997556240679,0.3068761767627503,0.3181650727727222,0.3321328001141002,0.3342487670220635,0.29975667784197524,0.3453917413302693,0.3010641177959467,0.3112872670314065,0.32512636010925267,0.3052054500537021,0.3137918554583548,0.32577155168353167,0.3080249277374848,0.3144560526888994,0.31927580907268205,0.30886393610216617,0.31099895962520147,0.31523498711380565,0.34150536951469246,0.31316483512124715,0.36845899620304423,0.3411775392292859,0.2989062940067867,0.29886829529846326,0.36602866391146943,0.3163140550242166,0.3076482149622629,0.30547694273365833,0.3248314710327569,0.3384955305530583,0.3029692998940457,0.2901851275421101,0.29474408795827123,0.2981656859367279,0.3221245483078892,0.31194081880241287,0.3223280444830871,0.30693591747610777,0.2959895907685483,0.29719296276648477,0.30252618002770504,0.3195326591221923,0.3086150772662208,0.3377911108366378,0.31846477443101107,0.31650031656852307,0.3857789356250124,0.3425006411162593,0.29972667642700546,0.3488883988254087,0.3043951120638075,0.32184786933868637,0.3428111750977529,0.3157624877425634,0.3098457125004574,0.301911474805904,0.31886379419911764,0.34877832015276594,0.30913684894311394,0.3271021407448894,0.30833183998144825,0.31914418127852207,0.2856977591178767,0.31542346857494497,0.2933898217010543,0.29577812499030753,0.3069777059415578,0.3087090930760396,0.3123918100698613,0.314769131455814,0.29547253487101954,0.304237553557379,0.32851560768166027,0.3381860721651444,0.30815547242597174,0.32611439878228354,0.31317206543460385,0.30751676212089707,0.32377306908929043,0.35998022255241174,0.32895583708088316,0.37350528997420945,0.29893079956885377,0.29454866072567704,0.33903899402633475,0.3006784922595589,0.3185220733998372,0.3638024973926606,0.3024882337233349,0.32584244979600313,0.3347427221199413,0.3170039288901602,0.31018067236105323,0.31479013745746603,0.30054875908277995,0.31303159049225315,0.32014446521745893,0.34890428569891635,0.3042869467138925,0.3314493183054912,0.32965803191213416,0.32284049551042054,0.35644020931668563,0.30862500975828,0.30793392637938904,0.3392582860581107,0.3052153786147903,0.2901102870776802,0.3090949795765824,0.315321623513129,0.30240206209425324,0.3096272289205428,0.33542392829189194,0.3096411205095731,0.30746304070592434,0.31625047926463135,0.29454163352700297,0.3278409355801983,0.3290684600294114,0.3043333595425836,0.329861640291641,0.3517974767639062,0.31723281725857555,0.32295170898529113,0.3246066954554392,0.3332645638753443,0.3235654543551084,0.30551105437150156,0.3050597434900499,0.30318499804083365,0.32536029277439504,0.34483383025358444,0.3004153341404521,0.29859048735528354,0.3215938488882334,0.3083354099169236,0.3344640434733094,0.33328683815567545,0.31797196592762217,0.30961832619879226,0.2929690818706327
