t,rep_0,rep_1,rep_2,rep_3,rep_4,rep_5,rep_6,rep_7,rep_8,rep_9,rep_10,rep_11,rep_12,rep_13,rep_14,rep_15,rep_16,rep_17,rep_18,rep_19,rep_20,rep_21,rep_22,rep_23,rep_24,rep_25,rep_26,rep_27,rep_28,rep_29,rep_30,rep_31,rep_32,rep_33,rep_34,rep_35,rep_36,rep_37,rep_38,rep_39,rep_40,rep_41,rep_42,rep_43,rep_44,rep_45,rep_46,rep_47,rep_48,rep_49,rep_50,rep_51,rep_52,rep_53,rep_54,rep_55,rep_56,rep_57,rep_58,rep_59,rep_60,rep_61,rep_62,rep_63,rep_64,rep_65,rep_66,rep_67,rep_68,rep_69,rep_70,rep_71,rep_72,rep_73,rep_74,rep_75,rep_76,rep_77,rep_78,rep_79,rep_80,rep_81,rep_82,rep_83,rep_84,rep_85,rep_86,rep_87,rep_88,rep_89,rep_90,rep_91,rep_92,rep_93,rep_94,rep_95,rep_96,rep_97,rep_98,rep_99,rep_100,rep_101,rep_102,rep_103,rep_104,rep_105,rep_106,rep_107,rep_108,rep_109,rep_110,rep_111,rep_112,rep_113,rep_114,rep_115,rep_116,rep_117,rep_118,rep_119,rep_120,rep_121,rep_122,rep_123,rep_124,rep_125,rep_126,rep_127,rep_128,rep_129,rep_130,rep_131,rep_132,rep_133,rep_134,rep_135,rep_136,rep_137,rep_138,rep_139,rep_140,rep_141,rep_142,rep_143,rep_144,rep_145,rep_146,rep_147,rep_148,rep_149,rep_150,rep_151,rep_152,rep_153,rep_154,rep_155,rep_156,rep_157,rep_158,rep_159,rep_160,rep_161,rep_162,rep_163,rep_164,rep_165,rep_166,rep_167,rep_168,rep_169,rep_170,rep_171,rep_172,rep_173,rep_174,rep_175,rep_176,rep_177,rep_178,rep_179,rep_180,rep_181,rep_182,rep_183,rep_184,rep_185,rep_186,rep_187,rep_188,rep_189,rep_190,rep_191,rep_192,rep_193,rep_194,rep_195,rep_196,rep_197,rep_198,rep_199,rep_200,rep_201,rep_202,rep_203,rep_204,rep_205,rep_206,rep_207,rep_208,rep_209,rep_210,rep_211,rep_212,rep_213,rep_214,rep_215,rep_216,rep_217,rep_218,rep_219,rep_220,rep_221,rep_222,rep_223,rep_224,rep_225,rep_226,rep_227,rep_228,rep_229,rep_230,rep_231,rep_232,rep_233,rep_234,rep_235,rep_236,rep_237,rep_238,rep_239,rep_240,rep_241,rep_242,rep_243,rep_244,rep_245,rep_246,rep_247,rep_248,rep_249,rep_250,rep_251,rep_252,rep_253,rep_254,rep_255,rep_256,rep_257,rep_258,rep_259,rep_260,rep_261,rep_262,rep_263,rep_264,rep_265,rep_266,rep_267,rep_268,rep_269,rep_270,rep_271,rep_272,rep_273,rep_274,rep_275,rep_276,rep_277,rep_278,rep_279,rep_280,rep_281,rep_282,rep_283,rep_284,rep_285,rep_286,rep_287,rep_288,rep_289,rep_290,rep_291,rep_292,rep_293,rep_294,rep_295,rep_296,rep_297,rep_298,rep_299,rep_300,rep_301,rep_302,rep_303,rep_304,rep_305,rep_306,rep_307,rep_308,rep_309,rep_310,rep_311,rep_312,rep_313,rep_314,rep_315,rep_316,rep_317,rep_318,rep_319,rep_320,rep_321,rep_322,rep_323,rep_324,rep_325,rep_326,rep_327,rep_328,rep_329,rep_330,rep_331,rep_332,rep_333,rep_334,rep_335,rep_336,rep_337,rep_338,rep_339,rep_340,rep_341,rep_342,rep_343,rep_344,rep_345,rep_346,rep_347,rep_348,rep_349,rep_350,rep_351,rep_352,rep_353,rep_354,rep_355,rep_356,rep_357,rep_358,rep_359,rep_360,rep_361,rep_362,rep_363,rep_364,rep_365,rep_366,rep_367,rep_368,rep_369,rep_370,rep_371,rep_372,rep_373,rep_374,rep_375,rep_376,rep_377,rep_378,rep_379,rep_380,rep_381,rep_382,rep_383,rep_384,rep_385,rep_386,rep_387,rep_388,rep_389,rep_390,rep_391,rep_392,rep_393,rep_394,rep_395,rep_396,rep_397,rep_398,rep_399,rep_400,rep_401,rep_402,rep_403,rep_404,rep_405,rep_406,rep_407,rep_408,rep_409,rep_410,rep_411,rep_412,rep_413,rep_414,rep_415,rep_416,rep_417,rep_418,rep_419,rep_420,rep_421,rep_422,rep_423,rep_424,rep_425,rep_426,rep_427,rep_428,rep_429,rep_430,rep_431,rep_432,rep_433,rep_434,rep_435,rep_436,rep_437,rep_438,rep_439,rep_440,rep_441,rep_442,rep_443,rep_444,rep_445,rep_446,rep_447,rep_448,rep_449,rep_450,rep_451,rep_452,rep_453,rep_454,rep_455,rep_456,rep_457,rep_458,rep_459,rep_460,rep_461,rep_462,rep_463,rep_464,rep_465,rep_466,rep_467,rep_468,rep_469,rep_470,rep_471,rep_472,rep_473,rep_474,rep_475,rep_476,rep_477,rep_478,rep_479,rep_480,rep_481,rep_482,rep_483,rep_484,rep_485,rep_486,rep_487,rep_488,rep_489,rep_490,rep_491,rep_492,rep_493,rep_494,rep_495,rep_496,rep_497,rep_498,rep_499
0,0.30327052445424496,0.3188439775056044,0.30768393849588604,0.33001367190653874,0.3221850006913091,0.36906997566235705,0.3119803104562141,0.32131965750889796,0.3775143887090416,0.32832954036473033,0.29936836549833307,0.38463378101884926,0.3150058262482943,0.3960824687513804,0.30784115221929975,0.3280826992318845,0.31514747280534267,0.311159921309586,0.3280219536113257,0.35017137430522144,0.40076150143041545,0.3088154526596491,0.31699420004472617,0.3450030000704737,0.33224856464756886,0.3212591744566426,0.34338425811432105,0.324498277004014,0.3265700511639231,0.3273046021325572,0.30800549091918167,0.3304091701041851,0.332199904651045,0.32145644014020963,0.32162177533038033,0.31900796974971596,0.3273715545027893,0.3383744972699284,0.34799083061845215,0.30296501785721525,0.4067114519224225,0.32036433194917835,0.32892862050970206,0.3130857499838219,0.35778726543939865,0.345290868392892,0.31978303211414666,0.3020280724439546,0.35068376439914944,0.32864119004843517,0.32258267065228263,0.3187392031211732,0.3551429506072449,0.33097702931247763,0.3139341167943285,0.3379896930271189,0.311410729940939,0.36909947729480796,0.32336687196601865,0.30447211892050496,0.3172472831021268,0.2883248438630277,0.2970832240644474,0.32367210494419246,0.3246944841011134,0.32880273510812735,0.3174460256523351,0.32694818585341606,0.30903369732291763,0.32176239156557257,0.31789439059738117,0.34747544069602393,0.3329132248112463,0.3280542658692916,0.35302644072288314,0.3922202659315372,0.31678765506554174,0.30620717317717033,0.30886871356752715,0.32405366520882356,0.3682746215846825,0.35249841473621407,0.3231746984946373,0.3179159533984185,0.32467303113249346,0.3143454152669382,0.33988334404149334,0.3236005336625536,0.31824736400838616,0.31741192962046333,0.3354965422186065,0.31558436920766875,0.349133821848388,0.34942845134205636,0.33678659441152936,0.3186811603372879,0.3079821098190043,0.3697295369950256,0.32224568693625877,0.3131150696020678,0.3078376165656752,0.3652526093550135,0.31276884418907813,0.33866564779978114,0.33632860587211666,0.32012813322604017,0.3200509506189294,0.34442826871668913,0.31558269415719387,0.3103200422829386,0.31111211128176014,0.33195436065552864,0.33315212813646444,0.3301827725805066,0.34125048671519104,0.304451301673592,0.32756080009565014,0.3362663731458059,0.302581884263414,0.3363742900435335,0.35300210067775983,0.3033281863088165,0.30991338031307814,0.31753934966250347,0.35886780554920816,0.31641029034420093,0.32303761974968725,0.30355134210292195,0.29600851608984674,0.31816518624650864,0.31274870022774287,0.3116945972602587,0.33540180277461734,0.31448665874771764,0.38658240445725517,0.3242802718828598,0.3209001193225452,0.3074656593177167,0.31208260861006065,0.36240404934461834,0.3747158462636908,0.3142439513779799,0.31897797853215737,0.41029365105101984,0.3212919263220649,0.33879284775316465,0.324458770011049,0.30891401363665155,0.34956295254560976,0.33463477334572306,0.3122287282457348,0.3213307945433816,0.2997084494897239,0.3198669096439614,0.3445793676090504,0.32709749676038535,0.28994948638313667,0.3178541317870182,0.29731349254662476,0.3103545138733264,0.3336430315288278,0.3278413659628205,0.3164839317835949,0.3190116632658097,0.31453050415975864,0.33565181448664383,0.31397428355984347,0.3368663528864364,0.34916851293467094,0.3123394778397391,0.33656188195619713,0.3299178158712439,0.3183738262064492,0.3046631013338152,0.3513028179861963,0.30751798816655784,0.31970730166585926,0.3035342862348066,0.32878287340525164,0.3312634217256093,0.33417157944629095,0.301810063084078,0.3439589695010069,0.3172927392952437,0.32739747106525025,0.320501344780002,0.2895243290609551,0.3312325955348648,0.3040850549310976,0.3021994328266654,0.3244435056907905,0.3130560697359072,0.3295770061497686,0.3011009827497614,0.3346799396657182,0.3060990769102868,0.31185920040634807,0.3718022709409452,0.3352406549002247,0.32101244695084685,0.29624111221172356,0.3077101359696021,0.33009677860105247,0.35636374187862657,0.3059636012199618,0.3163318118946466,0.3035283541979764,0.3248783834439577,0.3145457108431827,0.31550218071679337,0.3132179947169468,0.3461011464081867,0.3329556309859735,0.3541208198196204,0.30301646326977283,0.32765937752409346,0.3182883636204736,0.33080768645978764,0.32069011882846427,0.29845000072082495,0.3666055756389933,0.33677636165967895,0.34334827493820874,0.33863511200217833,0.3566204938579933,0.3284058650693801,0.34185493232306924,0.3313486273112824,0.3550247202186358,0.34169259692081855,0.31251482700273947,0.30515237948811147,0.28897785883049354,0.34184777299484503,0.3424078922535614,0.3392680865188109,0.32685484973822804,0.29761827138701613,0.32215695890598417,0.36018522688985605,0.32757888884549036,0.3254685716083904,0.30700188038490994,0.33791994868246666,0.32593085438687963,0.3078905882728777,0.3098432293788348,0.34633314642507607,0.31838870018701854,0.32779014869599654,0.32865634409662403,0.33265551496083323,0.31795525825508303,0.3021185012577653,0.3221074143559452,0.32018663040559525,0.3694056731619213,0.3078110929170428,0.33525047224601223,0.3256690332237552,0.32788923066185177,0.38651391534210355,0.32235832386356095,0.31600532477066984,0.31149882215104563,0.3170772234470521,0.31606053817802393,0.3393957826535825,0.31977118598688603,0.3129114178125768,0.43538579852366455,0.3003714978904499,0.31283766152322334,0.3101064430487934,0.3343369385873354,0.3347748169594409,0.3353158672179236,0.3085648412718868,0.29752153671262555,0.3672220759123538,0.3364526285022406,0.3295517966439602,0.3142985189685786,0.32733714295624955,0.3157478570858703,0.34010397403446535,0.31459827905615445,0.316150077028844,0.3623178390744677,0.3080366591223302,0.31291252914842105,0.35446610876470325,0.312123263361912,0.317544969310063,0.3077723173587411,0.30630614469034906,0.31311557450085215,0.31602457796627564,0.33715769615365127,0.32924514357885726,0.31938429206302565,0.3071143925868813,0.31603168347435684,0.3108101109218123,0.333986704394022,0.3251639940627003,0.31563724762578543,0.32482678761052164,0.33280446432580413,0.3056454680816728,0.3345860663864094,0.34550510512718496,0.30838977454432326,0.32752267980186783,0.3088008468826673,0.3198420306403184,0.30965283682652545,0.3033729853781786,0.3329976534319249,0.33517707151376114,0.3144326131130695,0.32621713742754205,0.33075553005087055,0.3365116987891488,0.34610358724721696,0.33588567363153154,0.3043669513559123,0.33001632413082,0.31203581802723446,0.3068248593980579,0.3134783510007172,0.3373035592225976,0.3529000588807145,0.3358487447831676,0.3364838000983692,0.3507553653594296,0.3199891069066474,0.3311359290789811,0.3207205762158341,0.3033837904115707,0.3544361204751819,0.33802558418512035,0.3149388870149693,0.3594444518436372,0.31675336952069494,0.33264437327628466,0.3072161996292087,0.3074351768219412,0.3234635454693134,0.31192556127420634,0.32052607880201156,0.3258361169600036,0.2984949586316059,0.30165854570459383,0.36568465371162945,0.31704129569999445,0.4625422842383073,0.3409771765021685,0.31269315417215715,0.3177720521820432,0.3429154777062796,0.32279408332991155,0.3494853442305236,0.3019753240100006,0.31625280445902265,0.33333169880071734,0.3397995001879385,0.3356049996069375,0.34555585539892897,0.32203448907572646,0.30686075682667907,0.36672903309661775,0.3377241668240827,0.33307430806926497,0.3269834082830053,0.3168329746964299,0.3496181093979823,0.3315360194646391,0.34063693738302186,0.31853767383787224,0.32226680026350174,0.3222066554415083,0.37826805722166146,0.30858192379684146,0.32359881365679066,0.3152091429494147,0.32393392434937224,0.31792478962665327,0.3556300837616352,0.3395615003788142,0.32961140336771855,0.33770017154080245,0.4046043595283021,0.30983941443616947,0.32678558683882636,0.34763678136727283,0.3027957052032388,0.3221700565871099,0.3218675350256205,0.32697145752778456,0.33961682599547205,0.3071232544911943,0.3373000020694579,0.360818129843745,0.30874098042056347,0.31107195737347026,0.3289984915669725,0.317294777445018,0.32331597238283954,0.30948204195433393,0.31558780072192477,0.3172073644978418,0.32730882140072304,0.3293258101318686,0.31444647156525396,0.3156001580006826,0.34761367353890654,0.34308165774599375,0.369206380905903,0.30957460625063143,0.30515009923052266,0.32455433758724483,0.36609313088497075,0.35365068575689934,0.3174903075979147,0.311436761542745,0.3332589503547918,0.3460795265159843,0.2997597346277764,0.3288939437396107,0.33809806599353714,0.321169959463095,0.32174209119669417,0.3320437247344078,0.33832100922858427,0.3004402784955678,0.32984409482629284,0.3156148670562523,0.32104762020536776,0.3403626961452703,0.3137832074597464,0.33090952089031356,0.3135040192749262,0.32206416025233564,0.29975096802149614,0.31000443863544536,0.31590080947339055,0.3330451092845184,0.35089926564383916,0.3164755206197231,0.3215859615516723,0.31832037085410364,0.3578447937733292,0.35024115022543745,0.3481817664431076,0.3288291135661408,0.31873685641652444,0.29864469988180914,0.3511404692445023,0.34585541343218407,0.33671829898152206,0.35117300585210665,0.33924340675043274,0.34211590266280356,0.3480812386121725,0.33102620696405555,0.34727433865800633,0.31512495312651423,0.32056154687078303,0.33351728876978587,0.3263450151965459,0.3165382893891605,0.34725996799275355,0.3299790011803173,0.2986861498985434,0.2984360146485234,0.3193962439524745,0.36276527494888294,0.31139232600352384,0.31685918091045484,0.33121501783098284,0.3414322739297911,0.31381350189195134,0.32668410948516324,0.3227201226085522,0.3413889237485653,0.3509098904439646,0.3175601008088157,0.32703821053983656,0.3318674832244682,0.3431771603569198,0.3346181717170078,0.30399057227522375,0.38124633153889564,0.3617516442129679,0.3155791084697991,0.3175270057830046,0.32952082218419865,0.33514119234702766,0.32411746742910147
1,0.3340474144637594,0.36852652892832627,0.3849073616762909,0.33879982009501586,0.2991347743110423,0.31591365631485663,0.3215476648629296,0.32690018153100636,0.31681832296217455,0.33708732914481826,0.29959998328624404,0.332391040114374,0.31852393628134373,0.32489877155273394,0.2961975355268894,0.3369855980403962,0.32138526903789033,0.30510079769761816,0.34151236407506835,0.3753452519230178,0.42715259637332836,0.38403420464899557,0.3287496945247254,0.308654947913571,0.30932658286889947,0.33279931938229784,0.3367068233593109,0.3523129956871826,0.3901098653908682,0.3200176242214886,0.3320973345134771,0.32077174650634405,0.32540950991943646,0.3055247512252193,0.3161604353422093,0.30910066875850106,0.33934775660510264,0.32106015036390934,0.3275513165118115,0.3726985668811001,0.35362528728339326,0.3252576382105028,0.3561833382180636,0.332699091337928,0.32206922711181496,0.3341152539643212,0.2965225640464901,0.3275368564899657,0.33445361479457375,0.36088410727354925,0.34197634053870135,0.3205122027009459,0.37059095960562877,0.3567721513353693,0.3318357210219583,0.3514272662750647,0.31214913725198234,0.3488332255375307,0.36666166277542794,0.3128532983239116,0.32678655656388145,0.3226870344976826,0.318789681379181,0.3241497030145779,0.3129516053262649,0.34876831144047793,0.35390807742336994,0.3484237339175324,0.3258271575008743,0.31643858987800977,0.36231612010167097,0.35178571307320217,0.3389769072589183,0.3189299877634272,0.3547421761122966,0.3258590918704754,0.3110827390095493,0.3422383007457729,0.31485218721783254,0.33400052284938475,0.3643687398812342,0.3047317712114011,0.3530196675685534,0.32245679830875595,0.359100512312874,0.300982147947087,0.32927865776647797,0.32053380672710324,0.31830185857970833,0.3344146940054648,0.3745232182243631,0.31125334636133994,0.3201978279449303,0.30171479759016384,0.32073734569806966,0.4021568962718872,0.31787964641360716,0.3054297564592269,0.3202016579959269,0.33779263201306414,0.3278508259439432,0.34864212670644373,0.3101058482867935,0.3063185938215156,0.3473269748354682,0.31685743385457976,0.32547552867130997,0.29894267932906005,0.3526532624158221,0.31587991363004886,0.32968853494075845,0.3097915577968086,0.3237025789365277,0.31910072652858007,0.34627814579385724,0.30496228190151964,0.3088987609038519,0.3165413402656999,0.31209176861989996,0.3919438353275723,0.3349994994688024,0.35824327003919987,0.32660959289381364,0.31084499645575736,0.3059831359700734,0.323574883140776,0.3095167225505312,0.3495126742118014,0.32134209034883143,0.3244518110037013,0.3617159046893253,0.2933599930218621,0.3361216677512795,0.33992146565222214,0.3280609709745699,0.3185536054012066,0.33155478109393577,0.31626050869300876,0.37073593249335407,0.3392194571024067,0.32228545059615793,0.3140043787742166,0.32438131060038444,0.33813085008982036,0.3223342938701145,0.3851823417890833,0.3122231723762226,0.31107475491641706,0.3564882357250322,0.31174386135745585,0.34868761417368377,0.3402747022549622,0.3190857726027284,0.31808211003635917,0.3205793414258057,0.3414228618793801,0.3083552757704577,0.3210952417496239,0.30846967139987436,0.3150270346359397,0.3131798472207671,0.3048567659569773,0.34717325588066583,0.33272446048308224,0.30085718184338733,0.35255849498381264,0.31578264034095305,0.39657320018485953,0.31810348693709317,0.3294611881173569,0.3064766996089489,0.3057959002305047,0.3467337720499137,0.3306204610801765,0.3574271372962879,0.31962808194728265,0.32856591098704363,0.3161416205191065,0.3518224832858957,0.35102243006403727,0.32892967071846746,0.3178832676873963,0.329907777733604,0.3361201962142305,0.3272437127638884,0.30858061402230547,0.3331508222479453,0.314125487761563,0.3219157040358715,0.31792791679313703,0.35165277879925966,0.34139217850694775,0.3375778549635162,0.31338207858436806,0.4092230495437087,0.3173626953984227,0.3150539253400463,0.3321255982882293,0.33852429304194576,0.29914770389062484,0.3366823872021073,0.39944207076112265,0.3241047530804983,0.33165845806685856,0.32005640474607144,0.3520813858764619,0.30279093836737936,0.3060918683004463,0.35554956850083125,0.31753115160371226,0.3386688385990218,0.33024782449974205,0.33660344814691523,0.33770533146626863,0.36561650506307053,0.3158369313226417,0.3288832142111373,0.3222776256989571,0.39458112558396186,0.3173863948372811,0.3335648916032882,0.3104146849002118,0.3463168147660781,0.3417550360269763,0.3160970186097836,0.3247260932335258,0.3987275647249343,0.38947477885071385,0.3823724971220933,0.33449065757690005,0.3348490397608376,0.3141705449692278,0.31801343920450714,0.31665490208136016,0.3119729171467619,0.3600332381830421,0.32692384198894664,0.3274761155918376,0.3449886181403655,0.32386816424772275,0.3174748713930483,0.3140031249385334,0.3072361995363414,0.30309511394597316,0.3099136766983489,0.31106616487706373,0.35407567124572104,0.32051593447794086,0.33183154462064557,0.3206276095703166,0.3120505641744441,0.3265745056083088,0.3338884118107995,0.31817705144701564,0.33183747401614694,0.3222626881022145,0.3349995389996012,0.3028429659205557,0.32032983951413596,0.3330656532267853,0.31494974070223614,0.39380693077423956,0.3151438825410199,0.3562432851387147,0.32690272132310216,0.3747990125717388,0.31893306622630413,0.31307964679992484,0.3311454407960126,0.3012372437880936,0.3150947578776837,0.31920578541957634,0.3099220739370777,0.326021223156262,0.3181573382875615,0.3185409867206962,0.34119573808341674,0.3079626471367713,0.3476757069109745,0.3251750569209909,0.3403280803754951,0.318555722602721,0.3516516944516186,0.30655597399528445,0.35568368196593214,0.3151072336875613,0.3346243193964564,0.31741698580025024,0.3359029543542479,0.32322272124846,0.3035583825146056,0.34885943430785293,0.3347675861909841,0.3194901027778516,0.31859618523302463,0.3296784417039599,0.3242407642306073,0.3014932704144285,0.34237115222662085,0.3621666390068802,0.2990667780881128,0.31480101452839854,0.32920383954286686,0.3402882407930325,0.38633484892067227,0.31547607355172336,0.3745186802132048,0.369818302825428,0.3254748115248208,0.30648376908021346,0.34665093800176444,0.3170735969468892,0.3187060442203896,0.3216067247447435,0.327547714244151,0.33763338068289084,0.3239066625541061,0.30233458817226566,0.3019428856773481,0.3341154064529605,0.32814482663296063,0.3235479533843123,0.3443927086978028,0.3728045861019148,0.316155964403046,0.3408678590139907,0.3143110264870904,0.3102242221594545,0.33924203507490397,0.3476396148208866,0.3233279511707342,0.34167296487477106,0.30750453786146026,0.3030266158504522,0.32964048974176985,0.3384730314597183,0.31898487756574145,0.31143470707467596,0.3120053241078702,0.30039354746284175,0.3518367074516788,0.3233732452606118,0.30777643302074875,0.340246993192135,0.33602669945623054,0.339469185147739,0.30668502121074814,0.3340130799319091,0.3180812237443528,0.33038541910383923,0.31319483919932306,0.3237759761081861,0.4057338945075902,0.32043110475462055,0.339989263453969,0.3472704217195062,0.3252730909520662,0.32238679261931913,0.30613525280745446,0.31139841006361874,0.32881168029785846,0.32613734909865955,0.34551606672100266,0.3024836067679208,0.3293466794522663,0.3381972598861786,0.33102891058687883,0.33182117510166365,0.32121651922375555,0.3320627302612801,0.31834809135268527,0.32193004213138005,0.3306449095620877,0.3634043174945633,0.30667802475169986,0.3426121697916725,0.3258063912654777,0.3434850856755214,0.4132050942291491,0.33148711479684284,0.3187011634674405,0.31531237252330546,0.3138783717173783,0.3551739046207116,0.30855256774091677,0.3141723537025861,0.2971632541353311,0.31379267682103673,0.32847238197483625,0.3319576173989358,0.3654923462638485,0.3155364898158696,0.3074903447843729,0.3066392802508286,0.335105002998444,0.3069248713799464,0.3643475959866854,0.32673321559298873,0.3241344455645564,0.29796797929953883,0.36141740576122283,0.3189021185098065,0.3268243803384778,0.3538553718101742,0.36192500389405957,0.30906412988298143,0.3045552173206314,0.3182784273971625,0.2946151857313716,0.3214075849600916,0.3135896977983971,0.3717687514196056,0.31326463448103153,0.3418525589658524,0.3257282570966505,0.3089533120598036,0.3693054894367537,0.30829378852046496,0.35320632129192164,0.3147922814895963,0.31874508516433775,0.32799426224466577,0.3586386428013623,0.3427191828175882,0.3222289909721582,0.3068128638985952,0.32785960201658104,0.31119100208619577,0.3179684386696126,0.3192827693061826,0.3551790567551056,0.32911792697415737,0.35657379382004095,0.31267136638051984,0.30718450902690747,0.3395453040637138,0.31066768386726445,0.36727465563949,0.34582406899805296,0.3493224322702037,0.3166402261906277,0.33323295465618485,0.35546996420584376,0.3194154945017456,0.33047971020514477,0.3132938896888426,0.3078035328134452,0.3132022551074807,0.3291577804238918,0.3004712801049755,0.3104942637422671,0.2897327313738941,0.35588093214493244,0.45704192677517386,0.4070140723490354,0.29510967612805056,0.3081637586762772,0.3278836712998413,0.30936014721382576,0.34479628957365793,0.30267011834813734,0.33924430487597984,0.3375501608010981,0.30081855663459445,0.3509432867061253,0.32860992308094306,0.3117645028662823,0.36899210322113024,0.33793238937705483,0.33775628786887546,0.3258520841732881,0.3131612086528207,0.32145627730035004,0.34003352674516457,0.32581921512609135,0.30667827795649805,0.33970253415783236,0.33989028562881163,0.32263606250814786,0.3218497349734161,0.3353398381832924,0.3189840572713251,0.3101709145197393,0.3042481246818641,0.3483693541982399,0.3883186714974706,0.3294594816754574,0.30800934437159533,0.3390989140431978,0.31868368341921666,0.33944420921788493,0.32351988004043897,0.3648287277407929,0.32425066463632196,0.3313041726918084,0.3563995191129048,0.31226073917472086,0.3270350380458019,0.3241687814487694,0.34511902629638735
2,0.3443074135722802,0.3539640086378757,0.3302715457858804,0.30673837682212096,0.3208926646033118,0.3414760767091566,0.3207860097368648,0.31969296853901197,0.31318086593333844,0.3057390644585743,0.30460802647489393,0.3196403807467264,0.3704105289294712,0.32863122521833493,0.30746271983909834,0.3586695287602852,0.3489866233045954,0.32326487541854576,0.33971041692987264,0.3284576196000715,0.4188031307366299,0.31891515721146324,0.3204613050814219,0.33239568577110157,0.3270181393265398,0.3062373027294073,0.3505405283521662,0.3430919406942473,0.32725765025405157,0.3685739609311405,0.31382933359289905,0.33943228670803455,0.30999668889305826,0.32797639425372094,0.3051315738653718,0.3179713277932434,0.36027368167061274,0.3111674146362764,0.30933099854521434,0.3171043670375582,0.3768075411028938,0.37649876529884957,0.356905048702944,0.301549966355369,0.3256817273617246,0.313171393505626,0.3367039886514075,0.33700495309087913,0.33451885002628917,0.3143713895852932,0.3475912958200305,0.36494544058120026,0.3669460255504179,0.37615972452187113,0.3200207334492349,0.339406780007215,0.3383876147853658,0.3048844398709875,0.3174819207940915,0.31705149955520884,0.31538732078025594,0.33068774895785225,0.32043726356193586,0.34855225085373953,0.3198040889695102,0.3083969888203591,0.3208815583685582,0.326985992764241,0.31284721004005295,0.35825510142481876,0.29899132170413917,0.3065095408909395,0.3086855418353506,0.3620520198465292,0.33414815741052245,0.34099782578334664,0.3013715045303787,0.3131012481849304,0.33309098441817814,0.346951906769372,0.3679058701969158,0.3226340590039337,0.32500904145867715,0.35973635618246674,0.31772787340296305,0.31145717817025675,0.37581088821452313,0.32327089577811463,0.311965726948191,0.3627515520692474,0.31458475480354336,0.32106139005616124,0.3613421829188927,0.31481567055577236,0.3345580925431039,0.32307637261782396,0.3134652473796365,0.30767468169791734,0.30383508506500745,0.31750673363498816,0.3387273433663808,0.32486264943423954,0.3464623036172694,0.3502621396765044,0.3263297532287623,0.3355793351004771,0.30456142074521275,0.3032225621287999,0.30345825561017664,0.3148563553989763,0.3157484247062613,0.3157224348817779,0.3330640775045195,0.3224809595793424,0.32414106631604,0.3295259793317152,0.3112563759094881,0.31039248577511813,0.31557363096266305,0.36149401900286093,0.31225805943759766,0.36455060808438533,0.3504678340596471,0.3375910189803052,0.3206104667722315,0.30811792444518316,0.30735210981141037,0.36722550081081407,0.3071539660880879,0.3538404576568224,0.3164012154121427,0.3241259633573922,0.3087940423434719,0.32417576682383864,0.33739609637688295,0.35819027018833716,0.2951225941221189,0.32385081937006027,0.3176164920621126,0.34091854856520415,0.3595276784867204,0.3084736968544048,0.3046667011141056,0.35966165373519676,0.31631319939928015,0.33238108606961025,0.3171198938398231,0.29671007527228754,0.32251875262247903,0.30690106539421286,0.3483900691184578,0.32399788114663175,0.33988772675904,0.3416548120438788,0.3117469268232341,0.33029348801115754,0.3165889821651521,0.30242627305404923,0.3354982409883802,0.3125226378888504,0.31048999597254817,0.35951346005531065,0.3074313837817305,0.32187419226729286,0.341810595485056,0.32868363146872154,0.30322183109491685,0.4740161003649475,0.3336353562807902,0.293287532675461,0.35571143153847207,0.38087181498744727,0.34422720929906636,0.31450950538219075,0.34890714420133734,0.32420287750888876,0.3162883041895512,0.3065684446094938,0.3146023920016811,0.30691840558805417,0.3326498085406452,0.3665078598949202,0.3263682002072793,0.33602018889427254,0.3553935812827577,0.34307983131164593,0.3300065292424643,0.3179743730100492,0.3163710421809069,0.3288247578218173,0.3023364681292463,0.3138733286672216,0.32148248545373104,0.3169332784575657,0.326188240008367,0.38242295070292764,0.3147521794110717,0.38618682240601043,0.3399775821699133,0.3012150163801878,0.35599980900363,0.378232877301605,0.3107690987857111,0.36854109512023303,0.3356980149684833,0.3489305390330716,0.2908715930439563,0.3476552209546826,0.32592316009405364,0.3250337029734517,0.30799097490531085,0.3412955732775641,0.3085609117923762,0.320644649382763,0.3291858514558195,0.3135113769032759,0.35822901942328467,0.3020397590558768,0.3641907086096377,0.30689839703417654,0.29889914798798195,0.32646584095432135,0.318392600434887,0.29803249594667836,0.3361175701706994,0.32643182438067464,0.34218473207632566,0.33055070996134495,0.37062449480498577,0.3216351804433818,0.31099028238703624,0.3536284092204227,0.33303323220110975,0.29657090076772274,0.3330304609533953,0.3428957525822449,0.32430293884029343,0.32019916536838144,0.29371160350816117,0.3617527725291397,0.3700104364044094,0.35577738315297597,0.3029882041047586,0.3409625323444262,0.3343236248202232,0.3308876704537113,0.30491047875711985,0.3484439287651845,0.32866856087324614,0.3599869138022844,0.3454395742421096,0.3034981994516139,0.3223839545671745,0.34618755090902714,0.43893954767312093,0.3257453505508268,0.31881361228896726,0.29458112888721366,0.3780202734434046,0.31457603698096365,0.31917280156337585,0.36349185913504833,0.34660342924943527,0.3047229336665786,0.3109254803132232,0.33617303184177216,0.3371935387440254,0.344726122985398,0.3141544926481163,0.336469415342133,0.33246750414426474,0.29749651372165575,0.32281945294705316,0.3381111999061023,0.32496169797020014,0.31394490225023863,0.34213687742054444,0.3074756401720669,0.3160213431352093,0.3500975126644808,0.44809102985112376,0.3166000598767435,0.33902129319256613,0.33013881862109146,0.3160505181971759,0.3371277353860154,0.32312683911047035,0.32252001640303696,0.3160756335267192,0.34926769929425017,0.29343213234904963,0.37919046684542657,0.3227196748159685,0.3089823413039835,0.31764758577793606,0.34497249411123526,0.3226186603064457,0.3143850826507605,0.3290142456452012,0.30573039964708487,0.3250466704755236,0.30585218374093237,0.3495558023898221,0.3288505411088374,0.3177813754738265,0.3346463344850833,0.33036630744426343,0.3439268683290432,0.3244299455852572,0.3014067172052425,0.36023743902135397,0.31348933163289294,0.325538630370096,0.315203494462867,0.30521740649592244,0.3262866392423974,0.3298148610546541,0.30740225826676054,0.3466805077783213,0.29736995705062147,0.3629430442123728,0.30592744940260774,0.3802885552540871,0.35377058067627587,0.3109578244295196,0.31011988611020075,0.3256468854173535,0.3050427743105479,0.35329342749765313,0.3292588876535819,0.2952620057377985,0.2991374299314616,0.30939811554404495,0.32855058857251357,0.3374612185954382,0.3200674967540459,0.3198643708299121,0.34185871907044046,0.3193700060016277,0.3003515407058609,0.3053903962618114,0.29856033580600705,0.308125911555048,0.35797437901064133,0.34906724838275377,0.31191112840165447,0.3375863976197809,0.33896859257892464,0.3091684660937749,0.3244965136933295,0.32573384875763856,0.305102444427907,0.34973390750870237,0.36093677374605143,0.34099853701532473,0.3253558724509301,0.32468381694713816,0.34508786654312906,0.3283508053329034,0.3577866258827743,0.318686622315467,0.319301614444797,0.36152154327617925,0.32614089666909407,0.32156455861194944,0.3279532483216786,0.32735479400077216,0.3342317602418178,0.33679902903733056,0.33212465094669225,0.32099572196587156,0.3147522923899614,0.3501799760931271,0.3597679812605311,0.3294443427342544,0.30700049130369683,0.3206973322817857,0.3364602646521244,0.3844260999872438,0.3140238587247858,0.3161909993929294,0.31175716129342274,0.3141241593925289,0.32702350069402153,0.32110389039078785,0.33472610853628837,0.29846247599137476,0.3252225041625746,0.310210254935807,0.33697918822291134,0.37730118257796796,0.32234035815736695,0.35793691730544785,0.30086365170096885,0.34482481948447635,0.30892461125727955,0.31513137422456333,0.3605371509891107,0.3210580742106302,0.36033368374207186,0.3508397130755708,0.3339836489054905,0.32907593448061767,0.32307936197416787,0.32578793303837444,0.31631184771022036,0.3083995286465598,0.32258582343718883,0.30148720261072265,0.3157923552933476,0.30737983957880466,0.3350386129396697,0.3261681245610085,0.33773954786290317,0.34719630940158897,0.3173678445910905,0.37006494117001204,0.3066448675981852,0.34462778298106533,0.3343534233483664,0.3124319519448874,0.3159639572446188,0.30810375027067793,0.37370620209360766,0.4229566057199389,0.302782682730235,0.346869314795057,0.30021626821917713,0.32678599308369566,0.32361958329410256,0.33201682847198644,0.32823360033901106,0.34566452690068067,0.3218664092595371,0.3107266682818727,0.3253062841431774,0.30511712784426887,0.30717332896939487,0.31799879251035873,0.3430396930876559,0.3275331614971121,0.32399135521905087,0.31709855861796166,0.35393731148027363,0.3276390542468991,0.33455133276782156,0.3347293129473208,0.33933118362034886,0.34376764831696205,0.3191341568308176,0.3346021259252982,0.3388427473672952,0.3096985810467191,0.3047336972888519,0.35680583148867906,0.38760889105240526,0.30363514498738237,0.2935842015020892,0.29513106200741385,0.3198231521741013,0.29765269933185523,0.34143813677756346,0.3108975909096875,0.3136289901904901,0.34551592592146274,0.3318846080466399,0.3234629896970401,0.3142440110814525,0.3305310948451206,0.35096406411822895,0.31007938342602437,0.31362350899927616,0.320245865401588,0.31788459683274484,0.33407467571873123,0.3210388748168849,0.3203452565184158,0.34899367034512735,0.325094361490219,0.3112567337615325,0.3056975873825555,0.3131496985549599,0.34416703945566074,0.330846311697786,0.38020016634883635,0.3404483173553946,0.31027188680447476,0.303303488845602,0.3502733429599544,0.3260091078125404,0.3631899325832969,0.3314408332747872,0.3135225741734439,0.312785113118145,0.3285212987104826,0.31207396524553493,0.3162232958021734,0.3327227911618901,0.31881921094806154,0.32725863368784763
3,0.3269896750852143,0.3339862985652525,0.3174473042240871,0.3844657965764361,0.3195408160412533,0.28959030450716255,0.41561065539983877,0.339686662099923,0.388398744394348,0.3493737135290299,0.31743044568313555,0.3654012828476777,0.31758386007909234,0.33720027293799437,0.3198447461012697,0.3491303463042994,0.3208082551646298,0.3199102048818071,0.3500047841561743,0.35465142353154855,0.3316874937603258,0.31842125519998155,0.37533822954064566,0.2984055779998208,0.3106666520652666,0.3021866541895858,0.3387996763906057,0.3297996238783698,0.379399618252486,0.3083500667089524,0.3450105086617577,0.340038515664077,0.2949172596667,0.3461825052685948,0.3041312391795953,0.31934063908912946,0.31775427518202093,0.31994822059377737,0.32527058210081206,0.33598036190144975,0.35310280517390513,0.34661826562732756,0.335308882547091,0.329325073431227,0.31293740305620543,0.3563634095342497,0.3188949748820493,0.3731756964831704,0.3261359696332914,0.34500556147494266,0.29554278952104795,0.40345511434026077,0.3607926972895402,0.4077991897321164,0.3217404365222445,0.3185824754924762,0.34395672144751643,0.30894103925786787,0.3366599697995885,0.306501953374374,0.33427172449460907,0.32672867255975596,0.31557195435518326,0.3483407792248435,0.3060506624223758,0.3255096915294631,0.29900747488406376,0.30973286461904165,0.2914728607402869,0.3165934813625656,0.3629862054214474,0.3326758121442624,0.318522719603835,0.3231296120750797,0.3531930857943054,0.3284505301697822,0.32938072497086096,0.3367705819470432,0.3442580564820194,0.37009723638375247,0.36292963177638493,0.32351137509002287,0.34262736059642085,0.33442872515670935,0.35610838291407865,0.31165856798603025,0.3276251367071256,0.3110349435170362,0.33748024638941326,0.325687557776425,0.3248146969108993,0.329969445106822,0.351273888019889,0.3117388617560149,0.30432965496644604,0.30635018875968695,0.3254785404730604,0.3388133509360676,0.30095274824451557,0.3182885653224361,0.3578072709630264,0.3220624455716265,0.3122739076782687,0.3812792537218915,0.30792133933781,0.32675596847198907,0.3202075206638373,0.31114987345352596,0.30084279069194836,0.3084388535029575,0.3245128681161255,0.3320963962775504,0.32632229714925437,0.3038907752227607,0.31586153475559586,0.308405730765687,0.30670461559357565,0.3271133193856274,0.30801505810776825,0.47220321785576147,0.3297255662833557,0.35548223138287416,0.34046280769971327,0.4372276640593931,0.35558075730789906,0.3141631189504906,0.3125705110181257,0.3395630436873539,0.3113575419045775,0.34762071010831636,0.3126182328465383,0.31986243106258805,0.3046494636509728,0.3655474924700036,0.33742896497927766,0.33000504922585605,0.3033799442118311,0.3298886866173901,0.36838694126747534,0.310985145745442,0.30624071529751773,0.32190301618499395,0.30780321383983655,0.3513624107436718,0.32037835919485863,0.3096785484659673,0.3441864533820382,0.3039828382717505,0.34106097364958154,0.3135971390627389,0.3347343828644195,0.32002782850775857,0.33222773211460205,0.3439277016622547,0.3639320854585109,0.3488280397460459,0.29983049384904115,0.33173304461085357,0.30968352872092575,0.3242368367617653,0.3196449391339076,0.32098558227995244,0.2990398621202337,0.3348056672304669,0.3119822843903725,0.35450308376362716,0.30802609169264306,0.3182196734225324,0.3122992195843057,0.3288851420081546,0.33943084334828966,0.32580739479169074,0.33336635275778986,0.3146245681071481,0.3282431125616629,0.3126445267919439,0.30115488628384207,0.33175603751939475,0.31961685497320713,0.3353527570624041,0.3208411717830686,0.3251547352298148,0.32489488011577594,0.32230125565919837,0.3242311881503891,0.34908459925819446,0.30918643328650575,0.3177845799253922,0.3112349943404176,0.30955314704903564,0.33134013264324136,0.34171140293222424,0.2958939569940787,0.33592376287244,0.3661734678475114,0.3487787435572298,0.295900990545214,0.3368121308038696,0.3275000156638515,0.32223703216682553,0.34891885731266725,0.3454371327329421,0.32089526849003674,0.357956255963476,0.3126305385060781,0.36426599557155076,0.299430678549803,0.3243029820753623,0.34031404592749087,0.3310504826954385,0.32815632253101384,0.32563275775067385,0.31502926396841285,0.3388378654418154,0.32368183626678265,0.3404170020503503,0.3252140626261249,0.33413175235164516,0.377732442551585,0.31131079713034937,0.3354840962956951,0.3327154512077452,0.3175607658152262,0.35013487471662075,0.3186675881623898,0.34214957643413346,0.33942917334520245,0.3663861525568212,0.31934651955558135,0.31282067585287454,0.32984850168479857,0.31352116388282864,0.3364429550364484,0.3346872814353644,0.3383806030625115,0.31885606690530066,0.35896444337331035,0.33104142954180066,0.36280903358746935,0.3756984991817822,0.3406568156615305,0.3014252909121793,0.31347816281796603,0.33847912040609435,0.30633794610995274,0.326028588534529,0.33767343652175474,0.3131139288474248,0.3263041938476559,0.3319714276035222,0.36801054289671437,0.34033961640990124,0.30854188742298816,0.33969682502814635,0.3738378088004422,0.34214654671401995,0.3351263126139537,0.31604569475848554,0.3517233530739304,0.3312305409754808,0.37265438597382844,0.3009531250802895,0.34008368893473434,0.3357877076064013,0.3055807973204257,0.31514496171259826,0.3337710271383202,0.30992614610839797,0.38309714288311686,0.31983428918216456,0.35604862525247416,0.31786814335599234,0.3220320259722636,0.4283030876859025,0.3230328145943774,0.3346941841688962,0.3352590596329772,0.31172666106120356,0.3099431559523643,0.3018397817228719,0.31386658049612903,0.33469530556264815,0.316828632774508,0.3411951181671738,0.3197914091258673,0.33940839369074655,0.31197327025354127,0.338267294475621,0.33263752062330576,0.3193521268303486,0.3140289557187107,0.31054332970097276,0.3045264966697975,0.31147934467798044,0.31898062594348353,0.3304495877725564,0.3131613173291946,0.30043770370834666,0.33485553180174354,0.34242797339318637,0.33002968552228495,0.30282182663545204,0.33637134180906486,0.29977408364005653,0.3007338508981689,0.32316827826696287,0.32606207503463286,0.3355953193085958,0.3081599138145924,0.3077315708564187,0.3309211664309186,0.31819515236161466,0.3118981348842774,0.32779441869958464,0.36092016001697547,0.3133466868270583,0.35860763420594194,0.30052645171088255,0.31561996440628304,0.29480075672700495,0.3361619520478238,0.32050536432420856,0.34880924263514446,0.34946575690532855,0.3321415854361242,0.321061466078966,0.30952718921262806,0.31517746861780827,0.3302897680299973,0.3250508986354809,0.3364390258082338,0.33608889339664094,0.29386374247578645,0.2990758285304108,0.3272171620226652,0.3471811797012493,0.3107115981179623,0.3520979612193803,0.31973291911047386,0.30686703312810965,0.3083367488387837,0.3183223913681454,0.31955845155060525,0.3470082185669103,0.30198282548665395,0.31325760271922415,0.34669244791493997,0.3150471769424319,0.3501641607782744,0.30641460211650356,0.30366657393934093,0.34812531203457137,0.34147683376463955,0.3129282370130543,0.32445386040043267,0.32745324180875657,0.34731446464783333,0.35112784451069956,0.3184640655398871,0.2955892857041329,0.3107421883406374,0.31219657650551436,0.3298547916256028,0.324231649151352,0.3193624677967106,0.3285803975272866,0.3195189646995518,0.34154542190665105,0.3157498720262094,0.3068728877337425,0.30897174757811097,0.3284818151458472,0.32167986999276005,0.3561563260572023,0.32250977908257694,0.3261892172276384,0.31567797056777697,0.33876480220789984,0.31655442201036305,0.3216448758666447,0.3202458249059501,0.29995112681660535,0.30248501250319554,0.3195286893442603,0.32208048446880244,0.33951087490057186,0.31272180897947066,0.3324824787974699,0.3514553296424392,0.34407500290602466,0.3065612139061705,0.3252224097359324,0.4867097747405789,0.30992930669737345,0.33814995918832796,0.3387163757611622,0.3420530309944432,0.31007614552598656,0.3188339304411968,0.3254953698838017,0.3501252570475735,0.2986108817478961,0.3313286490372477,0.3957763807170458,0.3508279578030875,0.3333767351999442,0.33822699923941435,0.31784257182846964,0.3115266875127999,0.3219850859274575,0.33865025385455283,0.309937724543328,0.3081829805317743,0.356512762175098,0.3426059982986879,0.29761004482336695,0.34925091739565217,0.34065563088548517,0.3048991415471526,0.34865530620224267,0.2996202351057974,0.3480589101419804,0.33209260556982884,0.31508315537952214,0.35555998832999064,0.3065126247394093,0.3603450744347537,0.3200904924127256,0.3293613014704042,0.3289742571022706,0.40103213942609256,0.31878046910557567,0.3073847570961223,0.35944654312526836,0.32694074324142075,0.31991697336091307,0.3078885850532481,0.3174691066543688,0.33127155139915204,0.3536630289275996,0.31341545617843514,0.325130774042014,0.3100961629990331,0.3442084337298184,0.3519494617069089,0.3144624149243024,0.34518513392608585,0.3127635140040303,0.3303234993826919,0.29663158750809676,0.31217914861596113,0.3427565223573373,0.3173337399690672,0.328527090858307,0.33207842991083847,0.32011951606679445,0.3238936014663626,0.30492312895124607,0.3189641424388243,0.3146654833576921,0.32179110897451746,0.36159582520115047,0.3101636816217901,0.3183467483464834,0.3136824667061512,0.3328487600360022,0.32172388248933925,0.347507318272183,0.3261946672414253,0.3131615463475632,0.33472967744137455,0.31424718573165944,0.3156176899226843,0.3356283519056863,0.3019076654840873,0.33446185878178986,0.3290840729726089,0.3460941585096586,0.38290702244073815,0.3233511704069406,0.30395459066686603,0.30164290904666113,0.30335490466008397,0.32808369935420134,0.35731011741611407,0.3483519223307398,0.33548951648669345,0.3240802374884928,0.3436282196083495,0.3392744493061824,0.32367174115225494,0.32649874617310287,0.3515668724102192,0.3323271035638602,0.332181286831284,0.2986163094980265,0.3212415209778817,0.30830854534003377,0.3240634171396738,0.35276904599967635
4,0.3328572046051357,0.3160655199028112,0.3210542974781903,0.35511549804024145,0.33305377725360147,0.3178910494608852,0.393663432727932,0.3142749112291319,0.3330842842223904,0.31931526330975146,0.32342308552847554,0.34370952753147854,0.3096536774241764,0.31587561321636626,0.3089750484673835,0.3426502946347492,0.35851163404364567,0.3074971424597185,0.34977421925119695,0.3180291413778068,0.35185992800323795,0.34148791879553747,0.32341007605130245,0.3106748199691413,0.3356698319401613,0.34530318211872546,0.34742322960880234,0.34395815437981253,0.38855016786656227,0.31641253159634886,0.30604387910359565,0.31647892087948837,0.32436257642641975,0.33870994638487256,0.3064466862000065,0.33855187045866847,0.3162796301622076,0.3012259221783523,0.31784492454213786,0.30902456120201915,0.3506625485935323,0.3299912569933291,0.3708898670974846,0.31249243106337904,0.33624524054572713,0.3290686326943878,0.3081152504262121,0.296156608759535,0.3612082409923229,0.3057024173973972,0.3109830229204712,0.3102708294035668,0.3652732924049245,0.3384786760565749,0.3193742723818832,0.34091413116822084,0.3373014322497231,0.33228841221335015,0.349539090559204,0.3065614889498864,0.34561654030904704,0.3526433671761195,0.31307434967558867,0.31584196092379535,0.32744282092119287,0.32578640312984153,0.3278811865442658,0.31699727322240046,0.3598644787051158,0.3086167575410154,0.34132845703841264,0.33105462971606486,0.3270322749504941,0.31845798373497536,0.30470389359991223,0.33322181253484,0.30605307090748024,0.3555262437644777,0.30303686313348166,0.3250432747931512,0.32651997485538875,0.33169487872006453,0.3702703669989397,0.3161014450656333,0.3557991701432168,0.31037040056324094,0.3418722597950858,0.3200488705175998,0.3245749872793887,0.3820879977838757,0.33352232016885985,0.31776262473480277,0.3184202999952905,0.3117260745762126,0.31075527151756716,0.34648065361858804,0.3908394962642056,0.3017538289688805,0.3162861095186734,0.3227573231664398,0.3079380014682045,0.33735804801771613,0.3491658504414518,0.33365371879200756,0.32424233670394553,0.32718739449395606,0.32963770497399214,0.30328305824658075,0.31436537506167783,0.3256999847970643,0.36253128389082157,0.3035725205506201,0.3401894877754985,0.3234570837574872,0.3249439667650903,0.31312923786960456,0.34461700218457125,0.3696751349229096,0.3263749366799826,0.39885922605077206,0.31050360059950627,0.30344618042574284,0.30923167006493246,0.33375661784692723,0.3234597181074644,0.32648287937699133,0.3043502942820039,0.37336745824387735,0.3244174129224636,0.33111743075895606,0.33704335034094696,0.32322419592553436,0.2991566167747849,0.31190158380273936,0.3089448352024156,0.33587698720283365,0.3144687846636466,0.29590274415911877,0.3910664642518269,0.3255954891950702,0.35780967899680544,0.30532055229870453,0.36764091569994684,0.3450515518052952,0.30614530261637063,0.33081605245671164,0.33840320225379095,0.3082527012918014,0.3192352315217234,0.30423256229715295,0.34038593710419596,0.36928883786936006,0.3294282640296874,0.31405125197936434,0.3086373983311994,0.34130996893817633,0.32296828828407065,0.2999917696195692,0.32615609752140706,0.3170777233178327,0.31112583608939415,0.32335486752050413,0.31378591463238303,0.3196398020118121,0.3141235405134544,0.3330857761155691,0.32054008795754607,0.34415688128677785,0.3159001772798342,0.30223497731463705,0.3187649955976137,0.3229214332851936,0.33054035019563177,0.301290018356975,0.30315613723544144,0.31930255740729596,0.3149551411243302,0.3646252155001563,0.317354552828303,0.3127509753915853,0.3241510784935595,0.3137236165381878,0.368832756194165,0.31015736498910385,0.3318669520399292,0.31724795433389674,0.3035348924597078,0.311732307664291,0.3144551495536687,0.32306729228817466,0.3421858361746088,0.3311686879682867,0.3638249710553719,0.3169640953943774,0.3221278401789958,0.45434479199610733,0.31862766966934675,0.3326669374275368,0.3267999347062437,0.3232697118079181,0.326285816663091,0.338637228824745,0.31131765771524006,0.36964360564497717,0.31727906530058453,0.3135349178564032,0.3115934513082101,0.3336641355019367,0.3394705364368317,0.3746290032079942,0.3126796216039375,0.34490088670765007,0.3263491898412816,0.3118466701293697,0.33588039531895875,0.29808280767388773,0.3378317025677694,0.304547469550227,0.33655726037112416,0.3223070286812636,0.3171938227876417,0.3269500626603364,0.37250745028871957,0.3145527207623658,0.32559197490985275,0.30721663226214674,0.3344450751789967,0.33173469909561065,0.3210292087242599,0.3393608343962321,0.32583511809582477,0.31708032663561225,0.3680916319467369,0.30702288099627434,0.3580482672957595,0.3379470927496177,0.33948009099327525,0.2934186691649931,0.4202833409759691,0.3365046042911718,0.354146590967089,0.30629124293415233,0.3307234386761376,0.3328149229025339,0.29766516656784103,0.3463153454936207,0.33109518642117297,0.34307124033429137,0.3276750671930445,0.3215546153810341,0.3104532489394299,0.31868373621434126,0.3239832006207778,0.35320049231159867,0.354373867218582,0.3152598992464795,0.31975803998750235,0.30959894137276095,0.32614097009792264,0.3496242356201705,0.3166285850124252,0.3074858223137554,0.3582889026180497,0.3616553311313926,0.317867198680941,0.31185264126826095,0.3413009604321201,0.31301548633737675,0.33486744500517845,0.31245971756775137,0.32476963254861163,0.31332177676376716,0.30432477539012615,0.31632754179669675,0.30713909535626244,0.334928085950014,0.31250829667949576,0.3239875215205277,0.30846752887503104,0.31033674205724615,0.3560557608302063,0.3393524449669661,0.34961102341417466,0.3348137249588353,0.3228065792638236,0.3925142388663497,0.35984142852266043,0.3193388266880931,0.38959889304999423,0.3080415779611837,0.3001127832428611,0.37394974013790294,0.31910139662444087,0.3118212139165619,0.3141411940381211,0.3529318610009953,0.292137404455847,0.3031212964961352,0.336162793531734,0.3216292292212991,0.3137247750444848,0.3046740366962622,0.35209877847741483,0.3008174784576731,0.3872660342791658,0.33533741712797066,0.3975949523637295,0.34482272160981753,0.30653961360339477,0.3281854017294336,0.3766812348799268,0.31440979066568925,0.3273505221820441,0.3067971170220051,0.3200668286351251,0.3106382980988955,0.3275055505560829,0.30478436497599043,0.33394531223487467,0.33100242698129584,0.31967587217551574,0.32521956726333034,0.32905877073600437,0.3260494139231455,0.3114177114065969,0.338167101060505,0.30376810124502196,0.3401195206775673,0.3422360446118101,0.3117619845998272,0.318717412495108,0.3096002046527483,0.31193806785571127,0.29998055384889033,0.33984803500042926,0.3402001426348492,0.3187376383648167,0.3185098097526684,0.33897305684792095,0.3564228519475976,0.327508804054249,0.3013035718785063,0.3028332982295872,0.32599486176759834,0.32833686997867645,0.29143441390019065,0.3424562754616399,0.3274691114334047,0.3237897230174297,0.3188851676436755,0.30920179877122095,0.3213573776940799,0.35566899506169214,0.3185823743200046,0.3177421726896316,0.3149283722634423,0.29710186321887194,0.3402749446384581,0.38412203638513087,0.3363520325861268,0.31671563914577255,0.330585655095634,0.3056436106653654,0.32011190435026826,0.31672702244823475,0.3399605892472178,0.30117748810593914,0.30525420977965984,0.32763248364909603,0.32501882844380225,0.3218217758386301,0.31796185714437586,0.37297143062510135,0.3568323860705231,0.3267637624275558,0.3083682217523542,0.3505319611409646,0.3328185145592858,0.3106114119251579,0.32332845310909597,0.3072121898092891,0.2995011801616297,0.3028499740997679,0.3324131666218495,0.33336957843607495,0.3229109663965873,0.2991260279712039,0.3188000933754319,0.3842803905847806,0.3503437888787138,0.31409738458157943,0.3576316222308119,0.36094966618910923,0.3267359040891448,0.31942177276265726,0.3081405540496354,0.3208930252566504,0.39443263157763264,0.31985677926283207,0.29921684395864406,0.33012527325462826,0.2988856299818137,0.33743153658040775,0.38725867386713136,0.33757895956389145,0.32161289815578203,0.365874984656712,0.32053703957667834,0.33698866213547307,0.34403988316510703,0.3037335439244761,0.29524537702883824,0.3066482705795873,0.34115771923578603,0.3601221236634564,0.30182297298327226,0.3341455821954421,0.3351655915196045,0.3114593598033501,0.32211306766009684,0.31723054810896867,0.3062352468862918,0.3374449503547907,0.31990974779025605,0.339668427687101,0.3230680867206293,0.3513287730680783,0.32263597777188024,0.30224122590170216,0.3070442617817418,0.33769583923602464,0.3280800836967083,0.3385829724796211,0.35190458042569606,0.31573337540945134,0.3328264874682523,0.31256397004540165,0.3302466221758511,0.31843017619855785,0.3306919232080661,0.348657621332428,0.330845077332901,0.30786903609161365,0.3542884219877609,0.3574649543746654,0.3293562782709507,0.3310790459356347,0.31180883643782964,0.30809510172718657,0.3242526541863923,0.3062586194592694,0.33420542130981995,0.346457143634373,0.35002512429925675,0.3352481245108274,0.3043860645505915,0.3100930729946217,0.32216951861957643,0.3291433764461794,0.3570755608414947,0.3416946924654729,0.31124835569651743,0.3145493287705617,0.31775359934920017,0.31650739714748555,0.32235498109065314,0.33719056427611266,0.30940367068415614,0.30326377456524595,0.35569427228309924,0.31550376313674977,0.3246742935005145,0.3305517452156177,0.3075411306932071,0.3146411947424025,0.3414214579177125,0.32766497505960024,0.32903694221531776,0.32801862791973097,0.32689821326471763,0.31475049349127127,0.3290173335678909,0.30269733171550073,0.3479133724245851,0.3068101670669877,0.35027562744080304,0.34274708643173557,0.30579745080806525,0.3321940319786322,0.3319365169429348,0.335757443886056,0.3281251672198984,0.33321857220672046,0.3453190169137592,0.32707747839497825,0.3110529487084467,0.3113930217669859,0.33652699897501304,0.33488740662937666,0.322823351785138
5,0.3319697336182818,0.31290730642462133,0.31937296632198897,0.348316965555179,0.31278120973075396,0.36474168590743977,0.326700317436445,0.3138018755751913,0.3351806791527727,0.3210244977018004,0.3053785039914444,0.33576620203212537,0.2953384372708916,0.34239030417702626,0.3153229239461032,0.3964701396176183,0.3398608344385047,0.30906077917373914,0.31435866383124594,0.33071671820963533,0.31367811878776897,0.3570400816151438,0.3037052625129438,0.32795203067973533,0.310724507869358,0.31597422657899726,0.38433028277491654,0.3478237916590921,0.32006435667093347,0.3183342313551205,0.32934759522309587,0.31426584291737264,0.3203681477335,0.34727505190446445,0.2953844932442507,0.31629506650719974,0.3416444901485058,0.3202624972437525,0.3247874883419088,0.3444768361262449,0.3939077717735219,0.3535465302771059,0.3313930509814068,0.30829336905439525,0.3288584869513745,0.33293103790034595,0.33222014983301074,0.3526088895421705,0.3358320855408251,0.3179864079818855,0.343983629607747,0.433781088819204,0.3464993141540942,0.3289098800330413,0.328146483408284,0.35021531796493943,0.35057434153083006,0.32470245819755156,0.30396497078462525,0.3105316823573596,0.3577932102878759,0.3138813376026109,0.3087798691133914,0.31806919849449977,0.30138790530640763,0.33362629598308186,0.31550817301148737,0.3137031715723838,0.3488045055638133,0.3188700293406486,0.3460797377062096,0.3093261264507582,0.3199476180032732,0.3276746182456408,0.3086647999986381,0.329067047843625,0.3158570507438068,0.331449867381554,0.3040351284957176,0.34167871527052285,0.3474244563679811,0.3472078384685164,0.33877438168256163,0.3144199489565519,0.3333480389234126,0.3157317708792528,0.36205999104597664,0.3220516771770243,0.31712648155109335,0.3426426576189786,0.31885007250773867,0.33881373933216313,0.306773071139871,0.2999208309495644,0.32284640435269646,0.3408374511365844,0.3275255709890291,0.3219784585553597,0.30233591772196194,0.325017280413271,0.37947595624922426,0.3488132550225712,0.34939302721962473,0.32291336936031895,0.3336674967619783,0.3295444577052123,0.33205771256064537,0.3109365529369522,0.3037941449081589,0.31560089449240003,0.312428639472377,0.3033754261810539,0.35006220000472255,0.30367864093643815,0.32338937842118193,0.3186461669295072,0.325864540801989,0.3515714336243946,0.30052793617968054,0.3489283961827362,0.31967697838009296,0.31092651909773567,0.33594062189974555,0.320693905014521,0.3821873167566204,0.336910735139012,0.32213156354127465,0.37757952774453585,0.2998184690831941,0.3052314890216916,0.3177784654146104,0.30256365004834374,0.3036828833322463,0.3253596758767888,0.32823683121737096,0.3196161933794173,0.2963413346609609,0.3124302033772189,0.3561974934767621,0.3633586708346751,0.3177664800918592,0.3242388475073493,0.3258206082251731,0.36424068301137413,0.30140697651524906,0.30082736203630467,0.33220355688626935,0.29712642208275253,0.3498409499317705,0.3058045068383235,0.3520881822978811,0.30840238748771637,0.33264224180584534,0.33253803601127274,0.33375947782404874,0.3262120875041453,0.32516938421301905,0.3023304732148798,0.32127600239209986,0.34984127186774117,0.3202337243936399,0.34786625700618984,0.3270006519945105,0.3435402166006367,0.3111746045921949,0.330936691795322,0.31403899641320016,0.3266163323369154,0.33121977617356163,0.3521747108296951,0.3026027366576013,0.30910727201647087,0.3140129023794042,0.29665875487978066,0.29650900524702795,0.3282939010729158,0.3139328828377318,0.3133495075698531,0.34864319463551563,0.309553007892202,0.3552649647207454,0.2995775678868392,0.3408690243073574,0.3847724091360392,0.3321039441172258,0.3232712110663737,0.3028863464891547,0.314315789271562,0.3162582270825304,0.3459036449256388,0.3157255988058266,0.3494352172842658,0.3132821734797998,0.31616454995397186,0.3341616436492746,0.35459689696604574,0.3174588051819327,0.3246932774989267,0.3243849171916387,0.3239972823675222,0.35666093305842883,0.3551287153266518,0.3007000955425586,0.3900695237393216,0.321982146704722,0.41873379667963606,0.3118644796625064,0.31635781314778655,0.3544713370047148,0.3055686832851178,0.3340816620958478,0.34370361741097055,0.3120804215074447,0.31165722195473233,0.3212265706587304,0.31915747496158403,0.35448093349509247,0.3061637189927815,0.3398734096743277,0.3416741434253042,0.3173244006909415,0.31839296228404723,0.32109823183429775,0.34699908546131913,0.32289300498773976,0.33921914499073924,0.3147492800665091,0.3748666770706795,0.35030173995251906,0.3274869092187592,0.31965934872984414,0.3486297752757116,0.30241311895861733,0.309557694007493,0.3321066679535539,0.31734328777443993,0.3811795345282729,0.3184297025033016,0.33841916781215803,0.3123250108909282,0.31301006054318864,0.3438087104140825,0.3182334267688958,0.36259239212115335,0.3223397446707742,0.3045094022395707,0.3096460450901512,0.35411985963413634,0.3396146405876951,0.3205347412170806,0.32116487187499115,0.3186574387221923,0.32557712020167695,0.33047511942229363,0.3239805536418226,0.33302828290448544,0.3295940098824627,0.3051889035085387,0.3503814480761527,0.3076360420011006,0.35114235225845347,0.3265154573543826,0.3296820423633534,0.35387295978213457,0.31685802981528527,0.34630863764601166,0.3184007889627671,0.33303545806986,0.31537929659422564,0.3429866913406629,0.3250329579340911,0.33647582543176235,0.30828896223930685,0.3271227155187895,0.3387679036194729,0.29797737510759054,0.353634824483789,0.3078047503721214,0.31581079919978566,0.3151117389396566,0.33701063849525204,0.3419468271495661,0.32394214739102334,0.33874633190693315,0.33747585375321015,0.3273229248020951,0.36370345178448915,0.33204066910868446,0.36559072573549467,0.2931112656673741,0.3086309531607573,0.3040822849667251,0.3138916971563381,0.3305829107355755,0.3201441512752484,0.337750732570664,0.36610930423653354,0.3070668279199462,0.32388473434390336,0.3243635588698387,0.3545661594352716,0.33606250590553044,0.3044213046821568,0.3014955419646171,0.35522047636626963,0.31682936360498043,0.376409837744361,0.3852214704334333,0.3381769723101002,0.29789397845692067,0.32759000223745816,0.3100135644711116,0.35769676956880314,0.37427692455358724,0.33194995126885407,0.3509282528411156,0.33413053139476917,0.31562738357224346,0.3079705974506132,0.32083280420268545,0.36359639578767344,0.3362113702800644,0.37320698509864303,0.44529148347229225,0.32246233179585837,0.33172699356845936,0.28788781225691046,0.3048857166718931,0.34825444727342253,0.32721442849381727,0.3036935504187627,0.3218410804893788,0.2983846109259451,0.3119389701427422,0.31443936563512725,0.31877300084792404,0.3000784166920859,0.32252827156907726,0.33726027121355634,0.3484435626451525,0.31499661995612194,0.33898127924411303,0.3099725831970232,0.33580775232145743,0.3161304014678808,0.3060336634818501,0.3095556750079297,0.3319507749133156,0.3299985248114463,0.33888159582380334,0.33893387110642365,0.3608926956310322,0.29183861965164415,0.3474767118713208,0.3442170700115715,0.35300354334809486,0.36616704937197564,0.3311534831324884,0.31982793453557534,0.3173284713167652,0.3006398716282468,0.3175365226679333,0.3144243952242908,0.34164795077501037,0.32120401031814527,0.3393252876269066,0.3203900895794288,0.3169872483523046,0.3147505380072403,0.34812357460432747,0.3189408128668361,0.32115377504393516,0.33390563710898097,0.39256403213874014,0.3164867696027684,0.3156777553710234,0.331133656120385,0.3800302928984623,0.35804049411298455,0.3110799183387836,0.32145595451016795,0.30112632450484506,0.33595640976580154,0.3258556627153798,0.30643508399054614,0.30961802975127684,0.30907990452854894,0.3159620590325313,0.37335231896280663,0.320285636154539,0.32221799686671815,0.3373183235250937,0.3580927214603034,0.31989435569959623,0.3378857559686341,0.3037793688175025,0.307738682410665,0.3341813158821121,0.3280534199178115,0.30710594101918476,0.34031029492442144,0.3087186728013191,0.31402628916100483,0.3306212310281763,0.35141690784015767,0.32136521753530695,0.34695874627299295,0.32896496927586727,0.32309405051295614,0.33159516171444914,0.30378609171258514,0.30176488724425876,0.32096844888362797,0.34108892699093674,0.3525400955207326,0.3472184429795555,0.3061369165006526,0.33941887729167103,0.34355581101596755,0.3514391681743242,0.30054878196345713,0.3223651098852873,0.33666939111489136,0.3210849817314937,0.32461184849517755,0.3056674070362343,0.33390397246128184,0.31623056367224744,0.34776490234606877,0.347287386481205,0.31758898314371387,0.34850452578356994,0.30556507874345157,0.33227226576185587,0.3439778727376883,0.33474272913127906,0.3246188119001753,0.3296136350785894,0.3238188769207464,0.3339146545627135,0.30791543759633283,0.35856844373312396,0.31059400593204156,0.3161656423680236,0.30830603602503237,0.31337129158612276,0.31703641101548613,0.3465600505855808,0.31048676952896737,0.31363721184754095,0.34781017819187343,0.31510972861241715,0.32193378613721835,0.33087900746576443,0.32549308130346255,0.33111871036498586,0.31560555498314624,0.35113663522064237,0.2968942434948675,0.3282845100835917,0.33149716102865334,0.31257531687473794,0.3236883439237623,0.3071855430535743,0.3102607868268654,0.31285080984409,0.3579911361789035,0.34173655873863423,0.3176236181266221,0.30805737242296405,0.38152796734411354,0.3319436314219063,0.31224793938377277,0.32339148817765984,0.30421324195521104,0.2933712002873929,0.36106156716906723,0.3382681438730184,0.31912694891877075,0.3213132032648626,0.3111295682046779,0.3064072918947899,0.3067601218716246,0.3406983760876877,0.34288632994142243,0.33190012479548126,0.3655295924709285,0.3324137408571764,0.3067085538834133,0.3828756356989778,0.31727441075104085,0.37886393565976945,0.34248972869752464,0.2975732733734101,0.31754390363318286,0.3078159313987007,0.3230833581865161,0.3057810014544408,0.37854817995430173,0.32881203196358577
6,0.34841823047990816,0.31940189514268486,0.3405037909740829,0.3580256441467099,0.3062332736576641,0.33384446253566463,0.3109092434975004,0.31877667820081895,0.32476328761891915,0.3180462497950172,0.29595147112304726,0.32498317085835626,0.3034727614950724,0.32121002356490974,0.30455758747002876,0.36918956181058055,0.31690182706236547,0.3314036692703438,0.34912654951415556,0.3112365101121128,0.32587809617150004,0.30065708113472495,0.33008524826724905,0.32199827144837945,0.3116850756150814,0.3027190724118067,0.3674865237533161,0.3144655078990709,0.372179682052061,0.30786618658030906,0.3169833443891929,0.3278399839281644,0.2902319439844364,0.32419687279097886,0.3066228640267874,0.2970675221683273,0.3162379548985804,0.30657598416792403,0.29640348931339106,0.3478535537716899,0.33123971472950586,0.33277535952914666,0.35427075372952443,0.3006765261636578,0.3415935408873081,0.33618927795034176,0.31333237549523285,0.34808684984585225,0.33602193960528814,0.30995543132437564,0.3333030630108098,0.33419047402341595,0.3285522388513533,0.32566726805286844,0.32108033908368017,0.32806108647739807,0.3057076163754838,0.3250801574252116,0.32856392499351383,0.3168014848186436,0.3305957813161598,0.31320172192796797,0.30650343783907424,0.33526780944664586,0.31280142058116545,0.3170248275284779,0.3146809277709274,0.30290060999873303,0.34605100386634474,0.3220743097266793,0.322965127417136,0.300091239344834,0.3111988936936759,0.3032486089124341,0.3344646754921452,0.32964096587802566,0.35231303916628093,0.3187241416595269,0.31240978381946294,0.3532675389558091,0.3877581450742998,0.3139941952435275,0.36076451548654276,0.3295919325378582,0.390993013641429,0.3049828136643873,0.35982540693646103,0.30450966218251335,0.3244387289653214,0.34814835054545346,0.38339838484549404,0.4075111942097017,0.316506376846117,0.30587006564299285,0.34925018122451706,0.3607592537781176,0.32288608290299925,0.3229083091701307,0.31219939190869045,0.3298163336993797,0.32396566666886095,0.3556119365530539,0.2934856120837967,0.34912077680065023,0.34637734584482993,0.3263725957627535,0.3325546740167721,0.3198102481899331,0.3242842711095638,0.3131854645171674,0.32393043468315535,0.31714442522915265,0.2992918512724386,0.33210517567176207,0.37319786312248604,0.2989515196596503,0.31411259116835666,0.34842144731799407,0.31065922385204936,0.3303134180491506,0.3157120772405756,0.32762078483082974,0.35520224637354164,0.3499698783074879,0.3274118092570878,0.34445317135135267,0.3270936841507309,0.32447782956850174,0.30360827347567604,0.31180949128968755,0.31061313841244637,0.3269425710933637,0.3011056623959765,0.32437710039179546,0.29836289678948036,0.3144774282982219,0.3149073017821121,0.2975584450097028,0.34703292893621496,0.34729512431185117,0.33285792112190155,0.3325122002478586,0.315584655653926,0.32527153945763787,0.2954490222442306,0.3081975960170245,0.35218603172005714,0.32133652177437955,0.3192679665760504,0.30810864371105084,0.33754366154529497,0.3121861772736958,0.309867315649566,0.3310073531479622,0.3121706747205901,0.31864348441261514,0.31321230193342736,0.30817633587720356,0.33287903110237665,0.3426173050333677,0.3232716754389909,0.33499947020935067,0.3106500327687452,0.338709389303497,0.3230400861718068,0.3274566014714743,0.3158225738974411,0.30572395876005337,0.33065847320946135,0.3061291093683859,0.3169800021016952,0.34522496153497967,0.3249507584367711,0.3410544047731013,0.31998133262814393,0.31166614342181104,0.30150557085753504,0.3288370097715386,0.3337386575945878,0.3026762233282768,0.33550085285134557,0.3283061439158369,0.3600736456066974,0.3443145807304382,0.30814729346630465,0.3418367083976611,0.2935571935064149,0.30157047670938575,0.3085485018839086,0.34572045183409617,0.3327051864845537,0.3510858650276154,0.3277139219853994,0.33870735730491297,0.3520058235423285,0.3579099986963963,0.3059331728610431,0.34128580698225675,0.3172484603329154,0.307734419086001,0.31832646111301266,0.32975025759812043,0.32617791345141367,0.34196876314970415,0.29951447031409945,0.35792144150523914,0.32437656536042353,0.3346964902791961,0.3577168684971805,0.3213560510256822,0.301641238782745,0.3428865456686043,0.3361449840417649,0.30719036912623393,0.3110590270699852,0.3355135734445927,0.37831824618370263,0.30003017227030543,0.3543260289072492,0.3104760412020871,0.32392102291604635,0.29851303230804715,0.3237967686923176,0.32193746650421307,0.33117405288241364,0.3329035415553477,0.36459265866488366,0.35159269056063847,0.34556507227207345,0.3119893273496181,0.31903148458399616,0.29727269188473743,0.347850295329153,0.3238318129117208,0.3280181111101089,0.36882965973744836,0.3760129870517453,0.3251313341914427,0.3444710226524995,0.4093487132320428,0.322521671700937,0.2968045272937452,0.31849446099494394,0.3291593458993478,0.31098948921330105,0.3235517728787747,0.34944774053593786,0.3165872484043464,0.33523119173244736,0.3529435496771522,0.3058667780854254,0.32067363184477976,0.32548899689792793,0.3323758163722391,0.3819600487826565,0.3142882590316705,0.33214640212852153,0.3042810130953325,0.3160093180422973,0.33503050876712315,0.31062626418695477,0.33533404717541715,0.341640484624004,0.33172613860933137,0.3036488035443775,0.31764603360591714,0.3117598557425987,0.32220739813108257,0.3325826658587691,0.3477154031613434,0.34865002143768514,0.32717353724890463,0.3034411963881164,0.3200543931188572,0.29650831813258094,0.3270968659360122,0.3143895442903459,0.3353535622859578,0.34017055447461214,0.34091990189222365,0.3035747214162193,0.3513553326187756,0.3041591715880786,0.3836694096435985,0.36034286471389504,0.35386780906596366,0.3167288289946035,0.3815743115788759,0.3433009322406739,0.3176718066492423,0.3221083820711946,0.32426922010070897,0.3086354773169622,0.2977542138617105,0.31641923070801814,0.363777825546892,0.3034600727333624,0.2948653478720813,0.3704158312283427,0.32053085671577924,0.327146711910586,0.3108798338019434,0.3329098133939522,0.2996524399730316,0.3733170778913878,0.31177708058597614,0.3139645305096723,0.334474365269537,0.3312900300612007,0.30344213627471284,0.4056114816364432,0.3297240113870181,0.3395735059129582,0.3076430786251756,0.3353839466042497,0.3087867715619895,0.34502608764322074,0.3236836008491409,0.3248699300115439,0.3206126966918349,0.33073981271187697,0.2945290983754097,0.3145699280591686,0.38549484774771725,0.32592092725306504,0.3233413942166763,0.31885786671006044,0.3393053338846004,0.3239226510296618,0.3246276059778882,0.33943293363794186,0.3167498701128592,0.3206089276423287,0.32014829021798025,0.3443091798028814,0.32818048150225554,0.3049068645159702,0.33479754895267455,0.32729592639821853,0.33667825177111854,0.3257606330832232,0.3223625034007331,0.3398821553870042,0.33280627108147615,0.3020933105797904,0.328486291419108,0.33546469547840496,0.29805134870262623,0.3471272453517625,0.33665408570382527,0.3271038726889728,0.3210780936456839,0.3124846538012011,0.3172800422405915,0.3996498513519563,0.29842181806675,0.33505135672759884,0.32423684098373884,0.35527063763617456,0.33200763082931717,0.31508663859563296,0.31392430631244034,0.2917891913963907,0.33031576613809,0.32294769985201877,0.3368568345548144,0.32475264622998,0.3074452565881845,0.31405656212154337,0.321146994500928,0.3142783880579827,0.33685681657348676,0.347873609764358,0.34552907980837316,0.33694290358158296,0.3116579222720879,0.30532666285692944,0.3471691328099891,0.34514622314115095,0.3049565626376002,0.3063416670805623,0.30168133572025874,0.3162471892941442,0.3201297580706054,0.3230846928472023,0.3307588729996069,0.31246823940559476,0.3305435309858115,0.3189122745728022,0.3378873083915255,0.32577521952608274,0.34012846820764187,0.4474300106234811,0.3060944611400512,0.32532608878514724,0.3578522569675462,0.30375976851423825,0.3297483492657104,0.3153194193736071,0.3233172991849876,0.3118619027093,0.28970556960303445,0.31499975201522346,0.3890100521598546,0.37643295389606746,0.3040753007166089,0.33395127738263,0.34954468385498416,0.32240131702641,0.3518858102987647,0.3257880042209007,0.33140638267678313,0.35113851664800555,0.3816129399773887,0.3133638557081643,0.3158289732852917,0.2991079540104901,0.36429808561604327,0.3475039094100838,0.34271415829138974,0.33367787388819314,0.3400112808634345,0.33315790483907914,0.30337928837854183,0.39879409308583613,0.321600510154363,0.308267389805985,0.34498450180885637,0.3262301288418909,0.3503792448792112,0.32007414573636184,0.30915886554686095,0.30216042642686164,0.33253180028420753,0.3318849165496158,0.34545253896806927,0.3262959915522583,0.29589223161385075,0.33065510091288863,0.3274728978525263,0.33775605226121863,0.3141370895722758,0.31850300086124717,0.3624452045801855,0.317504704352094,0.3213332630069139,0.3212533978085784,0.3181247938796732,0.3133933008999873,0.3094134426314804,0.3290045154010424,0.33394353808917787,0.34383779720398544,0.3506475407589046,0.3645498706418062,0.3235417514029749,0.31454556952439805,0.3356174473522404,0.3200707309599361,0.33253044468018406,0.32761729479988744,0.3117466542887009,0.33914269893723537,0.30688008011943874,0.30233772328189196,0.31350508777883995,0.32227532763182715,0.3413872736384448,0.33087326162856934,0.3620027682386503,0.33941607624310705,0.3173684095842414,0.3243529655354587,0.3077285046845344,0.3340499159132469,0.3502512057912669,0.3268264909973412,0.3202737161142188,0.3198814508708622,0.34360752730682464,0.301255908641812,0.3170219861674759,0.32878825549117946,0.3285162253337198,0.34877794264979134,0.31344011321172904,0.3172448194402945,0.313792564038632,0.31938793100089974,0.32723348431607424,0.3084469740331384,0.3679774348264232,0.3173767896569205,0.31111676399214083,0.3321415534751164,0.31423411137950785,0.33101846890291375,0.3049895653678948,0.3225591757669362,0.3327325356892099
7,0.3528474849979918,0.3311035760571107,0.3291267885865872,0.3424309732430827,0.304261551692968,0.2986267824185636,0.3119684603122149,0.31798743412296815,0.3183253011752936,0.3461400218906558,0.341018721908774,0.3585112077436595,0.34849351405107243,0.3367958677086743,0.3101597626865247,0.34212522482814506,0.3129704599791022,0.3098762234744151,0.3256417835664112,0.3242147406681129,0.32608138340297493,0.3443477808713789,0.3039312953276777,0.3098135744613709,0.34933653487382255,0.3613288428262855,0.36438950217648847,0.3117603925852217,0.3283055852750178,0.31796919777055443,0.3111457912512508,0.3040576153675052,0.30954472452717713,0.33906440492231826,0.31292833253049074,0.3168723583931655,0.30446143162175254,0.30466747939155225,0.33096923708753423,0.3525433701875737,0.34750045057109225,0.39587759407003337,0.3529394759073854,0.32184289399742627,0.33841608556297365,0.34944642864201775,0.3289843457933312,0.30868904242720807,0.36378803733343235,0.32303021788434483,0.34335617398110674,0.3449503950579963,0.36611673831829217,0.35235337648711373,0.2963556076459791,0.3324568021409303,0.32385061043122,0.316104389676266,0.30947093083859717,0.30296575214696697,0.3215726000989969,0.3151023583352265,0.30006104166747327,0.3398224764596995,0.3277608049692207,0.3184137626592238,0.30167409241318843,0.32753151532185426,0.3263607832342844,0.3234513408450984,0.31839364449323543,0.30252420773005845,0.32315240077421403,0.3624356971528756,0.32310996942030207,0.3433110519234405,0.312986722884674,0.31485881233704993,0.31471018119830113,0.32464024416746107,0.3288091310751691,0.3544867030383457,0.3336787966613889,0.32832530529133164,0.3423738848874233,0.3045669969731649,0.31118531793794535,0.30978344769717653,0.3114117429830051,0.3312296933808693,0.34356263582663643,0.3386536304519529,0.3023614106772247,0.31463176424802075,0.3428700962383563,0.3379604158812091,0.3202211444937689,0.30548863235026497,0.32679432709999534,0.3169520561243046,0.33857977388091337,0.3390845540344364,0.3288946209568041,0.3398892129525637,0.3488956108927582,0.3459415465407936,0.317096675103947,0.31062559544694707,0.30157920138340544,0.30633745618916525,0.33598341494587086,0.35866158432517026,0.344205038806049,0.32352084649444046,0.3450427041659309,0.3089438404636193,0.30518723292559863,0.3928294964903951,0.3033251977467769,0.38608301067166934,0.33816588409926795,0.3111607560941567,0.3140387553303487,0.34659716890512166,0.3385873850810966,0.32115727590392024,0.33161573318333964,0.33333994511153714,0.3048366736296514,0.3265931003627208,0.3075312325233509,0.3535250179163407,0.30979016380601065,0.3156248241292812,0.30421545965996516,0.32899096743965933,0.320173300782061,0.3192388633627774,0.3604317277407002,0.3215162071687135,0.34873823813014093,0.35721025731090983,0.2935625410736822,0.33218708690938853,0.31520824740368786,0.3139347243612697,0.3315347803583668,0.2990663716868266,0.33945963073821456,0.32122763369244783,0.32763628428588415,0.31146637167629465,0.3550979812060643,0.3316113594024213,0.3517885335049462,0.32420906066657923,0.33196684473249,0.3269328144078223,0.3506810424537,0.35729877484267636,0.3336275855457641,0.31486534295125185,0.3287911478571055,0.3115178751703001,0.33527617760540884,0.34200746367253176,0.3134109851516512,0.338945822866666,0.30393523363530306,0.3003830805278696,0.3473465891847213,0.3377459703594293,0.33564867859674125,0.30987035244976147,0.3109497489981553,0.3251884286414993,0.3548054460958392,0.35403673924601314,0.30046850234443034,0.2955806270843578,0.3445838273237545,0.346318929468036,0.3716457095264388,0.3272254246998457,0.32447978682855033,0.3463892356132011,0.3016303629933448,0.3045125965844793,0.32474011938088726,0.3211234128422772,0.335754918267945,0.336507352386044,0.3315531807472253,0.31597072459376185,0.32042367805618727,0.32435714914328784,0.3133841019870804,0.3466554185656704,0.31530639300080965,0.3011192637750919,0.3697872616225057,0.34411093484116567,0.34828749474604226,0.3418474478706385,0.30047679630301993,0.3337405693722012,0.3158822535326695,0.3204300017726229,0.34533420619667293,0.32521824262433646,0.31860559191123994,0.32681179020448675,0.3162304938131775,0.33105220844109046,0.3493819648715314,0.3170763776033535,0.3336951606300053,0.2999488053858556,0.3193959200082753,0.30751666768669506,0.34826387332580155,0.3274203372917069,0.3420322933761653,0.3219413647227931,0.3292615005903652,0.32690134670103965,0.32252778690148776,0.34425724536704416,0.307262971925979,0.31699152206351877,0.3105942081402311,0.3321374566729404,0.31609642322457454,0.31152391900717746,0.30716820005864987,0.3387964394108057,0.3825704558424021,0.3139148040475235,0.32692239146110474,0.3273607022111403,0.32227165755008047,0.31031798625082635,0.33748768152137937,0.3441655007590142,0.32071924605172225,0.32504911982160223,0.35845404070272885,0.3433277251401251,0.31061101637058824,0.38466363414776034,0.3201212949706438,0.3245935612683431,0.38643255211807453,0.35842851072248855,0.3642490145541045,0.3390427079729583,0.33441465532904463,0.3121267734527856,0.3155479679073749,0.3075557553674876,0.31243756389366517,0.3115885877644633,0.3169419941462744,0.338503569826146,0.32232426968685735,0.364952336649608,0.33394536695889343,0.3242148045599859,0.33056298982794485,0.332118221721456,0.3460656732451454,0.3013610640718077,0.3289141829244687,0.3327466004339517,0.3090451948180689,0.3483916999091807,0.317358143404208,0.3326976686389229,0.3599015226905309,0.313452031329695,0.36991562085065643,0.3618065376907209,0.35374477051278524,0.3766626203020863,0.33903456335825793,0.34385684832426244,0.32151760315258665,0.3353354506912258,0.37485152564191104,0.30673312308338707,0.32707628724542426,0.3269368202737656,0.31023522794195824,0.3234458268885565,0.3161659969966358,0.3302556721844655,0.3097125044323201,0.29696745910368516,0.33551774807224255,0.3697279305676971,0.31803398809462713,0.2923597376236874,0.3486080718302316,0.299611900018255,0.3688635652395783,0.3136608225319928,0.33672136334328,0.3393913633720304,0.3160680763765631,0.30433779281578494,0.32763236954018815,0.3295770126556087,0.35611952652097345,0.302668127317521,0.37676437853459255,0.34967155052008136,0.3239393496370197,0.32943508010310196,0.30337158340970305,0.3493449552673857,0.3273590966534172,0.31739593967539037,0.358265850065406,0.328767375577103,0.34943626362073077,0.3075460879471849,0.30211488867526015,0.3176174624036995,0.32802240869647004,0.33751829477303996,0.35104178151979465,0.313920536806765,0.31420901235027654,0.33868696950575156,0.3182489510215704,0.33301070041777076,0.31594663106960585,0.3266215464135063,0.32927722681777316,0.3077688842280508,0.3213057772422175,0.3143219016575779,0.3313767833004665,0.3162165147130143,0.3150961201438051,0.33001602223187715,0.3024352961465656,0.31121872102730136,0.34360025794291155,0.3289653045316498,0.315005828899405,0.31406471197886526,0.30814905764917333,0.31874472075827515,0.3355343484920268,0.3268320591426213,0.3681896416242059,0.32624501482975304,0.35828524408235063,0.3159996475270654,0.32649480258739755,0.3186675936266986,0.3281454157877176,0.3371985266458693,0.32940756512220015,0.3408433421144039,0.30906747919034006,0.31738420941832945,0.2981866111050541,0.32237166061283257,0.3122208334741273,0.31848869132565805,0.3413819307456253,0.37955299082260974,0.33445834343156305,0.31916389440471754,0.3209856665792783,0.35076942988281884,0.34231946155094606,0.32632940283681205,0.3256973959995665,0.3075361625149141,0.29834397176596145,0.3112141525411573,0.3051104141886394,0.33011482902516154,0.3065620576345524,0.3291667327399196,0.35404215432116104,0.3748334821147542,0.33956385934546685,0.3691816425825686,0.34321940741138246,0.3165215891943479,0.335985053472108,0.33490758647765073,0.3532266317302905,0.34211293626648664,0.311483318080433,0.29133843887163163,0.3191791409533969,0.2924115924907726,0.33158486426780776,0.3308295183290685,0.307640356402266,0.31234149736999917,0.30710863189265253,0.32330526369104456,0.3441820662303478,0.323946125403168,0.3226584470873451,0.3727938035093771,0.304635658040754,0.31984065262349504,0.325321192636069,0.3020716980266057,0.33826102029244504,0.33780431330601673,0.3122057161244185,0.32868055452945066,0.36249814687593707,0.3298700997698245,0.3730533247933475,0.314568428718848,0.35229036632901767,0.34400319520694483,0.3334256982471883,0.34481935968647404,0.33946133644731213,0.30800075231295976,0.33049179981060833,0.30595014721915964,0.30259433288617565,0.30787253152550387,0.3368231265520576,0.32055132432724875,0.3316920750054512,0.3229852357714582,0.3111791727692047,0.3625028776881726,0.32239609767145544,0.32248442575903524,0.306629003012067,0.44250087877008193,0.3388452821475709,0.3192817127082239,0.3301804911397438,0.3501068352984949,0.3555269416025421,0.30649760922236713,0.3556674358594003,0.3406755734278161,0.31170419261336973,0.3564352046810789,0.3286384786067126,0.30712229171064204,0.3104124616086319,0.3621745530781994,0.3054289309024866,0.3111993069529765,0.34835004798563957,0.3113886329433922,0.3339780125193511,0.3200479548666913,0.31621173657773205,0.31897260768328134,0.3282074100464243,0.37140052393822304,0.32312998032926865,0.3348478756662,0.33283620085755666,0.32501955771219326,0.3386159924955231,0.33091433948067006,0.29990078400250925,0.3389290914143691,0.3503678236872688,0.3203946078442813,0.3238101189452116,0.3227940017168815,0.30289565457942424,0.29774041349914576,0.32264220063396565,0.3279941787010751,0.3660061610074319,0.3841350888848222,0.33690350760256893,0.3185632794777344,0.3280086386791441,0.3224746631323718,0.30940576890609356,0.35940351942723475,0.32281533243789806,0.3175669898188844,0.38718850941130717,0.29915522331036665,0.3689726405356689,0.33108817797342704,0.3867068197829544,0.344107474347484
8,0.3317544616678151,0.33489911292006214,0.3582986717991835,0.36680958571337646,0.31656234630634444,0.32535540574726013,0.34147350844417845,0.318170219193349,0.3332559106294814,0.32438578707168725,0.34638729463026185,0.3494712583383567,0.30936577072881355,0.3614586182814745,0.3170903444481722,0.3391859305505468,0.3059035786105276,0.35028205566740733,0.33630247258937407,0.2982082710854684,0.32198463178868353,0.3282242806302632,0.31270371684989595,0.31996089935937616,0.30926990424625866,0.35106178702843194,0.33335273819200406,0.3118009880451144,0.33442393533008224,0.3039346178365826,0.3727670582149687,0.3132661649946879,0.3128743857912216,0.39366908373733966,0.3189361101316972,0.30533310211562237,0.31604126042559266,0.31655821366454917,0.3011338227729977,0.3225709090909591,0.3218725425246178,0.3674223398039418,0.34585719320435077,0.3172694565169897,0.31527928014030887,0.34687698567510233,0.3140097611288953,0.3070155457157673,0.3407956052435068,0.31633705341989804,0.3231150818393392,0.37812138518709687,0.35641198015835135,0.3374239932570252,0.30746518503648224,0.34482767186889945,0.31589292610069253,0.3416460959002166,0.32486501134654666,0.30150147856782866,0.3348536058745278,0.3090275236687344,0.2969556051719891,0.3290477397879514,0.30609649635169134,0.3807643125102348,0.32397134838006847,0.3129867965603156,0.31971461667947126,0.29842176117161356,0.38131183595257856,0.32496629801912535,0.30330103712787365,0.3300625986685082,0.3246133685197551,0.3344353900167311,0.3401472297561564,0.31280316711144207,0.31071497915654434,0.34549261761298566,0.32153778602574523,0.3122954058338699,0.3304316133524816,0.30465953787511874,0.3427380516763852,0.30786847080718704,0.3117053410398848,0.3100431126236721,0.3131845873126376,0.36235786243501694,0.36173237880002157,0.44705861224791993,0.32071260083290287,0.33838821172861167,0.32412273530072505,0.30933788436850174,0.31904170105888324,0.3201269532115306,0.33654327598651623,0.3599124680112263,0.3283691654577215,0.3598502928287277,0.3083687598073051,0.3472488603714877,0.33040346580614754,0.32259346109876463,0.32489410491143517,0.2917706963733172,0.334844033838106,0.3075613136795004,0.32300947024186655,0.32462858186179044,0.3172038722370523,0.31582869931948265,0.33215996216804533,0.3248881059531187,0.3188997237748006,0.3185331384004414,0.3059425882529926,0.3182015293976045,0.3584845192757367,0.30112727842473475,0.2968989769380868,0.34102218222576003,0.3575662192089907,0.33490541445974026,0.313755927238519,0.3340407873113168,0.3015193803758137,0.31941716452781055,0.32780833067628257,0.33752857199784697,0.32884264933438245,0.3262446271169955,0.30536972960646624,0.3161495498571433,0.32459032031255697,0.33162202100034294,0.3420344580377195,0.3549305005082484,0.31533053154228774,0.33793733206443477,0.3059934807654806,0.35978335900082203,0.3110622076311285,0.3115479961982025,0.3457369759018277,0.36198527832968713,0.32399249595742613,0.29993107008938236,0.3413607318135136,0.36267680206806596,0.33831271052676826,0.3366920524280938,0.36366026194732487,0.31128502069059827,0.3109104932881359,0.3250734870356866,0.3943306000523716,0.3561635566665616,0.33837426186961356,0.31843452086228285,0.30769108098627607,0.31175261038143054,0.3077610665880364,0.35229800866341165,0.312757135071147,0.34022670335322236,0.31569338670934466,0.3200129069621881,0.3232627992925108,0.3302630215470503,0.3404766286341665,0.30119462997197666,0.310003107617673,0.32091001718028894,0.3144116819716212,0.3494938106009534,0.3490110273494077,0.33138117401097295,0.33501138641737044,0.3507449108618801,0.3456472825350009,0.35497538342954077,0.32068264173560695,0.3694935526970397,0.3002932056386682,0.29773723235433047,0.3129499444416134,0.3460284914867445,0.34948541822862617,0.31706538870336887,0.3602001213836061,0.32681239646756394,0.3267663975263276,0.32274441759391037,0.3137100016483,0.3526452391810575,0.3038451118445382,0.3072058430406622,0.36188016102390463,0.37033546458193467,0.3100485865473846,0.35083456605305213,0.28835307928406556,0.31019819988179353,0.3260383880880514,0.3321271188241553,0.3083182190788811,0.32236192984263223,0.2955916766989335,0.31977724967225224,0.34087757202399444,0.32581333210226004,0.33481165126160467,0.3101974054555391,0.33614333650423905,0.3035106649748238,0.3227893332947495,0.3193325556933136,0.3179403990246116,0.34530449665747415,0.3292179943347873,0.3550770370818366,0.3246697399215663,0.33085378076360483,0.3460395465838298,0.32745310647839465,0.30266271569906905,0.3343682585665323,0.3382813675131624,0.3621223623609243,0.38853744444612565,0.3078635403706963,0.31100024793295744,0.3701238975410661,0.3779273202762514,0.3206836922651913,0.33765129180583664,0.34366423046906,0.3772431245234652,0.32903839626085596,0.32170241061267124,0.36217038548850394,0.33227611064955237,0.3222591711482381,0.3246559798400053,0.32982011434558695,0.31974573930602357,0.3550534205703208,0.3067368875914488,0.3075286521211589,0.3712130575085849,0.3258140181792038,0.3617311574694607,0.33506968631533923,0.321288548177605,0.300120168688985,0.33402905644097725,0.31539088807589216,0.3251649610840398,0.32552703792505655,0.3615515196697202,0.33783988848047114,0.3182364612438545,0.3331313816230703,0.33516147161313514,0.3387814132670882,0.31531829882543444,0.32594376116023666,0.34020115732287476,0.3137040896399913,0.33254700845092994,0.3716836599475818,0.32867945445683555,0.3289851988261691,0.34668232692518214,0.3309974394948828,0.3161972976674859,0.3122134396103224,0.31551549631006826,0.3430867871388402,0.3646361515903345,0.34972910844253474,0.3548212555050178,0.3269862655227279,0.32835023565999066,0.31983712654842555,0.3769217297405767,0.3026610159574768,0.30522117710119023,0.34352104111998605,0.32842893042814497,0.33421596170987905,0.3159451603168114,0.3529507365863494,0.30518351245437425,0.31479983433110387,0.321001041801301,0.3277819594475234,0.3089411779435953,0.31987985153423015,0.32609114199316674,0.31377839466563284,0.3614620805237627,0.30987961915514395,0.3273157373966056,0.3338002913227853,0.32551495081981024,0.311864196378896,0.32618141304795867,0.3089833847672989,0.37481622541668347,0.3134826104245513,0.3045352470952345,0.34857672741975676,0.321170562214952,0.31159372575256905,0.32541027521637805,0.3201767451423426,0.3310294535051155,0.3084688338800996,0.3251674935256814,0.3302082592926515,0.36641959751744696,0.32069224874644314,0.31012728829866953,0.33295060810830895,0.3135839831485247,0.3388926852133156,0.31492622551485205,0.31567189724707234,0.30436118037816784,0.3388028036884899,0.2932593218741311,0.3318166393681293,0.3256928600837996,0.31668883830279404,0.39623799905414364,0.32273431902354666,0.32047500593839084,0.3029839360483749,0.34870348422013164,0.30473912799011105,0.336525436466141,0.3268030311529079,0.2931706166685586,0.3147100123945609,0.3277267431701866,0.31469527631717065,0.3160925629483579,0.3472354580414952,0.3052515084729369,0.3222258070948758,0.31630369246749596,0.34856345041698905,0.40073880231388337,0.3211100415123246,0.3118828804591621,0.320353332356537,0.3025983772507891,0.3057722779775328,0.3174635986545995,0.36329922345337595,0.32817761355660346,0.39616705707226424,0.30266379905135327,0.30618740387775645,0.32203067882350284,0.3098469837616593,0.3198034169640588,0.34146605709195677,0.34065438402066023,0.3380825909366826,0.3065508467419654,0.3152372035614083,0.31364951994696155,0.33645229135537025,0.31383317617765566,0.3087706952263248,0.31566188574947934,0.31748084001302035,0.3192919670001147,0.3181167327648924,0.3295537978567693,0.3324994241373873,0.3013378570775804,0.3331103488610957,0.32886564767197024,0.34724003873208875,0.36150078816111336,0.33915194123780584,0.3410440667379372,0.33232017315632084,0.3443987686517762,0.3283759885660765,0.3328954885963759,0.36630121807374316,0.29260235265804857,0.3056200584265495,0.334351370868433,0.3032300672577965,0.32393486038406205,0.3407059240389806,0.3194456931393481,0.29544137097698947,0.3340637050783011,0.3233818187722884,0.32996311991331184,0.33132579478759333,0.3528074342679534,0.36117459355831494,0.32880887551067955,0.31503240353885154,0.2943146044012572,0.30605361263495123,0.3388655932134326,0.31597515498530887,0.31302520196758626,0.36469116839934773,0.33827981683184,0.32357580994886137,0.35478638032498155,0.3051212128000795,0.3366779086798677,0.33803831791619177,0.31488176277585617,0.38004090427524984,0.3162530151290424,0.32568051698861544,0.4049684009526624,0.3264271590845309,0.2999374921523851,0.33727309556773827,0.34715512097336676,0.30614778473497994,0.33490662089756196,0.3320014689053251,0.3243386796802424,0.33535657139023584,0.3325593316954079,0.34067300899566183,0.3200472739340521,0.314655585786182,0.3440538545217523,0.3212068777512742,0.33196467332506197,0.36396297340420697,0.3207297504509106,0.3025261254035974,0.34348420583718553,0.32921727384355437,0.34132133841991996,0.38172885107304316,0.3823545680344321,0.34671622219913767,0.32478197782475193,0.363286976794693,0.30432014546523034,0.342702204385604,0.3234416774819577,0.34068408199334344,0.32114032262454445,0.3149606645710007,0.33989537219983057,0.3902452076569263,0.3279526682645016,0.42414910704557396,0.33926937741781404,0.32378068034716034,0.3545458832246112,0.3174399563699278,0.3295016513378871,0.3097976007489434,0.31340832561223053,0.32744429102416045,0.34494193700582093,0.32211362355060535,0.35190758834005537,0.3197903492646762,0.2940422522026567,0.32260276816401,0.3113301239509777,0.35710386033160785,0.37027920442718626,0.3219762472890074,0.3694120434349236,0.3030093119805331,0.35652661686193643,0.3733654952127272,0.33178601371477867,0.388388998927912,0.3374487502816192,0.30298099150615254,0.34105915461935316,0.3091004815524566,0.31151603668914307,0.3122596467950025,0.34372941769983817,0.31360574027629895
9,0.34315799243676987,0.33675675557954204,0.3082705912426137,0.3356196068943437,0.3204126839895731,0.314931410458914,0.38160121335017333,0.30466155771476316,0.3255118657324495,0.3271431548404603,0.30786056238406656,0.3278542410651199,0.30050538318832587,0.3531514850347352,0.34300684156288874,0.3525337340438577,0.31692341905714766,0.3043265676661743,0.3615281394483537,0.32067462760230725,0.3295857764096906,0.33959832948366026,0.33535011564636774,0.3275570799752806,0.3260867543676268,0.31411597108057343,0.3332305272452419,0.31272386606035324,0.3580597854348496,0.3327910890300385,0.3015863477725708,0.3443344109514356,0.295294278066683,0.3505622888559022,0.30250682314986344,0.3166511276484489,0.32377794336464605,0.33399742035604973,0.3118934030750887,0.300689528561519,0.3349468639529917,0.36840680673805226,0.362734390172075,0.31375992444912376,0.3132319764497746,0.33830481881045044,0.31190660099788003,0.3014936376855137,0.34591085693117846,0.3129289296338841,0.30821898192526376,0.348531299719854,0.40045154091355856,0.32504712120329493,0.3270199874281078,0.3090663424196754,0.3282376181407081,0.33817957632173035,0.3182306434794852,0.2961779463239892,0.3344898332528289,0.3155551496873086,0.29524556632781623,0.312090850160327,0.3114195462763064,0.379029578340555,0.3008897362164877,0.3029667135859463,0.33158392167064893,0.3030536418069666,0.35133742429030657,0.31711072952369873,0.2969079540932019,0.3480808245434405,0.325822894845005,0.3135803239371923,0.32028371598964994,0.29842746923170127,0.3247034848239554,0.3739867724988456,0.35097045892789974,0.34978903327015476,0.3484708632431816,0.3149283942804926,0.36162599634933557,0.3018983051044043,0.31513809110360097,0.3192418267440252,0.323875942213942,0.35984975875731806,0.32692639704468573,0.3740990762086765,0.30386004231048375,0.29893699611890745,0.3396142673963157,0.30639933874270325,0.299828394420271,0.31594079690165044,0.29998558473310716,0.3491445012921121,0.3608812313301983,0.3729181651182124,0.3267914876516464,0.3620242207282115,0.34914782386567494,0.3365143473434887,0.31296516920207273,0.29654046787370447,0.3147928298514685,0.31415777534460465,0.3286163473039108,0.33530569379888975,0.3152434378876178,0.31811345521994866,0.3626572787557117,0.3023132107890148,0.2999452219447104,0.339426019598963,0.32616794633800505,0.3283264144976576,0.31673855717650584,0.3305374164772962,0.3075030773681336,0.3782277564323743,0.35451809226036535,0.3311888181317709,0.33324709345368203,0.3452757991991889,0.295230207104689,0.34273996777757826,0.3419848533287511,0.31145309100811447,0.30845008602767165,0.34075505707513376,0.3217737435041234,0.315425950623818,0.33221524308219763,0.3301163044040169,0.3516416191682319,0.3373327464026742,0.30055225628481924,0.3367516165334514,0.32341331217303954,0.3667331378287976,0.3152822026703275,0.30464590128605734,0.3297057782458739,0.3060668570922526,0.33807921654618844,0.31483968441336013,0.34436740531666976,0.3234893213815015,0.3236676569446521,0.3182564688546573,0.32897185352733743,0.32143229077616453,0.3161319193208499,0.33710135811224917,0.35103376774797473,0.3743442135861311,0.3364237127883867,0.3278739932890852,0.30537547308646273,0.3059371361783739,0.30458952953669327,0.336994916825621,0.3027482951464183,0.31716868986822677,0.3120492394039877,0.2937650698334953,0.2951494682046625,0.3216158767033338,0.32714003761761423,0.3354848927081569,0.3076807813678799,0.30874362732855604,0.33031680462217183,0.3843716835308508,0.3048550655665464,0.3188649412865021,0.3797268726761155,0.3456501683174727,0.3166918424393816,0.3350276903597825,0.32418208246598446,0.32333249452201546,0.3059217656887625,0.3096269786837781,0.31502546855590335,0.33957574786345346,0.33453001912869873,0.3194533163153998,0.3156668093399278,0.31678135187347156,0.3592624797223216,0.3517174144039667,0.3255441176529025,0.34863296596131316,0.3190915303977976,0.31046068792655274,0.3314322516804447,0.3432957518369347,0.3147020332639042,0.3408447854896416,0.2967620228711387,0.32369450900852176,0.31135169725090495,0.3344569001689765,0.3534833647493659,0.32199963846157825,0.29892633474759267,0.3412602396471784,0.34940955885029074,0.33363057490787623,0.3174372375133014,0.3178754913781794,0.31710480618426634,0.3273003153745183,0.34042213931383386,0.3171938227413571,0.31046890660392135,0.32305129267594934,0.3130652337811665,0.32761263531135987,0.32578416913074587,0.35673803083227335,0.300605215036586,0.34391988967305265,0.33040984137286256,0.3288321182405625,0.332966521857225,0.3423092432737068,0.37227840680681545,0.31486310424963315,0.33457737637936524,0.344313740162815,0.3447492017032182,0.3102101843368372,0.3187942562293517,0.33857062499897195,0.3498953252566716,0.3583965956385835,0.3433635871706178,0.33370038180555345,0.3175096351294081,0.31718068177590053,0.3575564125706695,0.3454147769033519,0.32689932818842304,0.34793139911290655,0.2958618204566486,0.3226712051081216,0.32674957700907775,0.32243214214306704,0.43221165398026284,0.3230474452479013,0.33959593894789436,0.3142913101940662,0.3251275166450344,0.32309015734715557,0.3172890140542762,0.3089037542616583,0.32900709729614996,0.37232012445027335,0.3209374576315428,0.34204163463256543,0.3246677390620032,0.3172525824822148,0.32501471785733416,0.31127899143757254,0.3177158190711641,0.32341531498731824,0.3187720651886559,0.32577026970136036,0.31136990681319415,0.3944548006824721,0.3250110994752905,0.3184403751463017,0.3578415284238397,0.3278086638232399,0.30734837732102116,0.35393482507028773,0.32390024157590835,0.3661026737835513,0.36339748109662845,0.3225937550882556,0.31869521304011256,0.3203374772745283,0.43068348011961677,0.30430870355026013,0.3131152160219837,0.3130325672592954,0.33623727312381096,0.298722963897146,0.3069829312007492,0.32152927902475437,0.30784521226646394,0.32208638184876415,0.3312749293804085,0.33250476665229195,0.33353664969835023,0.30099098973163596,0.31521917900002017,0.30642608957346035,0.363787928123281,0.30819943996409793,0.34983730825856835,0.3407833136331946,0.3345687482495667,0.31236717279195636,0.3519444472271472,0.3133816160141886,0.3439350823085859,0.3014494214787219,0.32929783611304064,0.33397004174826617,0.3169064186071177,0.3435210978533015,0.3398976668015674,0.31811297875951283,0.3682661022102904,0.3247952385190053,0.30531704948213395,0.31940371243415766,0.30864938791828733,0.3113552410113424,0.3008288802402623,0.31480384332566147,0.3687939838028382,0.3201556317931302,0.346942766843836,0.31287768711653874,0.3459089925316487,0.3134679183045994,0.3301585582535264,0.3559923068235257,0.3061701220175349,0.32318983251631483,0.34774465131790494,0.3113850499583159,0.30775000166394784,0.3290763310862301,0.31251622155009795,0.3174855627596621,0.3329546840178804,0.3047584950455213,0.30775643156019605,0.3046136788126958,0.31930495781809143,0.30932555279788654,0.319681399097706,0.33305151598174915,0.29463262240493926,0.32288309701539786,0.3448448109988703,0.34227878253296085,0.3264923212277032,0.32228878308143716,0.31196651054272423,0.30772008753092367,0.2970291063208993,0.30790208414639014,0.3283830467750667,0.33229326181126373,0.31778142994935904,0.3360270400946417,0.3047052893200407,0.3092101791873582,0.3088062997352839,0.3449810415553829,0.35273938686877987,0.30948321975296644,0.3997323922499517,0.35782490929252087,0.3246724113322556,0.3271800155682706,0.30039166621593394,0.34941383976849594,0.29668679623805655,0.32233605587511305,0.3161995159701316,0.3085624798859937,0.3104055630225767,0.31376676475902326,0.33079626830275444,0.3205097308231774,0.3158484632694371,0.3497793050242777,0.36394395025199605,0.3640436389914072,0.32935160697229754,0.3383306352946902,0.3775176319108077,0.34040988856405235,0.3280552432756694,0.32647017775163195,0.32817960154271386,0.34095027886329776,0.32519971324076413,0.3159626137569175,0.346565158880105,0.304728778031924,0.3144906780524198,0.40634978886964557,0.309368103477208,0.32490922391137544,0.33444025451593645,0.33359250769361315,0.3165860298345743,0.3723709117820842,0.32920492366560994,0.30144039268926365,0.32699006801207736,0.3424303208464947,0.3171811149808529,0.32985711138552976,0.32965008644101207,0.32734034504117193,0.31857617439266683,0.32148566802667633,0.3323590203287957,0.3163113925449125,0.3950919289299107,0.3032815917918269,0.33864065941822213,0.3183028541363658,0.32253406244240407,0.34173900461826673,0.39515249566965527,0.3268063689358454,0.33806203984406585,0.30677910581792117,0.3056193226990063,0.32111689099970164,0.3149455041456687,0.3191968095544148,0.32519273464331394,0.3392821215116115,0.34678067806848,0.3432095110153835,0.31314144488585927,0.3118241372012837,0.3241343749860234,0.29396607207359626,0.3352764527662316,0.31820244088397553,0.320930446498715,0.3457276996242339,0.3285657511504548,0.34486472226033266,0.32956611568850863,0.32278428202874576,0.3340844606350993,0.3586144844349878,0.32316140087778306,0.33643345989272044,0.3200219133979535,0.34212613565348693,0.3137543195573792,0.3849985934336628,0.3089727656412809,0.3271154863660785,0.3194973270169693,0.3059755974529417,0.3067054976087067,0.33828477039205873,0.3392031728024642,0.4184140325838667,0.3164201831143555,0.33245308791710165,0.3165572480256972,0.32670029107809057,0.31496758757992804,0.33352574163077675,0.31396997630116236,0.3361216610046231,0.34040132706501997,0.3263728074006892,0.3242580906781357,0.3273277550377947,0.2975676796615087,0.3076587184392827,0.30942995602631157,0.3481712519447422,0.333494114514547,0.3235681324009757,0.3247614503295087,0.3185483859306201,0.3077156981944523,0.3386807080201023,0.33409516607229106,0.37405294132726175,0.33064012379804497,0.3583183946994324,0.3825935364089245,0.3049684923874469,0.3351326810141467,0.304891754118373,0.3512824929501939,0.3212662582610954
10,0.3288034143695105,0.3452651281531771,0.3219004108388742,0.35964812865132606,0.32258521219437586,0.3032745019047698,0.321720144147104,0.33436929848258046,0.33794536092292204,0.3142582139794857,0.3010225337540886,0.39642608885455544,0.3010120873242402,0.3594939713399449,0.33563045750696363,0.3254383431490935,0.3132294958555967,0.34116423722243816,0.3218574070104629,0.31549934376442723,0.3632440082840699,0.33204973212957817,0.33784769539860743,0.3097039776338021,0.31572347465116773,0.3201177304852275,0.37109393836324817,0.3093386331639852,0.32796073050455526,0.3509130702429986,0.3358374043978423,0.3658940033903006,0.3025068389797411,0.3901084172524032,0.30426552896963444,0.2916680072802935,0.3250105530150539,0.33224822518740316,0.30776372412779124,0.33178686226675036,0.33161338386514483,0.3374310195301547,0.3327080479726997,0.32431596070713653,0.32511591549437197,0.3248074939277195,0.32091434395486995,0.31051687512472914,0.35225484017750924,0.326601486429091,0.33331676472280325,0.33216426644632124,0.40157351615461734,0.3394637231207994,0.34480425755767924,0.3171265505553308,0.3100028298092367,0.32831675218401635,0.30953107604462987,0.2888447462115262,0.35966153304728976,0.32114880999744755,0.31670271507708014,0.3553953145442122,0.36123984618238947,0.3588086143918003,0.2984236754391905,0.3177310919409192,0.3310290238797442,0.2950294590499394,0.32230905416133543,0.2977508995697793,0.3088504226247493,0.32071377398939077,0.32698262100326914,0.31645676716820714,0.3302499803139143,0.33354693161956467,0.31654377047521776,0.39238915050813833,0.33798054265555977,0.3106985838043141,0.3335794298957894,0.3186700617687003,0.3808314411628741,0.2995414600508236,0.30395385494765054,0.3177607958291132,0.30259126203623743,0.3261132109674604,0.3127200285003418,0.38869666800529656,0.3565597032245193,0.3187716156222538,0.3333522534279335,0.31723142368311497,0.2986782065471085,0.31722888671358107,0.3171700906606943,0.3185756521672607,0.33302067046608563,0.35063419021151304,0.3029464406450747,0.3245393922605329,0.32523430617622323,0.3361188483345549,0.31658672534414595,0.2989220329072083,0.3006314105191115,0.30586480570106483,0.3129762119996971,0.336940859598167,0.3339086184587468,0.31736488855519296,0.3632211179994963,0.3063416038804819,0.29454805965391523,0.32141089741511186,0.3298192814228865,0.3733220754185672,0.3495076442471436,0.314351764603522,0.3195473871141569,0.33726157716975963,0.32826671300185123,0.3471529937312982,0.31686593858769674,0.3598487123745418,0.3015530753561429,0.35883294281181743,0.30865138087043686,0.3171233111727144,0.3266262785241846,0.3452663772539512,0.29960907185332925,0.3145230782824163,0.3250118952984397,0.303312104208254,0.3230339060426249,0.3605356239995348,0.30647913209179417,0.33135094988589453,0.34109070996711816,0.3326308249027551,0.30425409007849324,0.3258724475951334,0.3468612168131397,0.30578107250526865,0.32072097882486117,0.3054125760487176,0.3491388918670072,0.31511217951091963,0.33106365778970387,0.3165942992600582,0.3517250220375638,0.3294440311452258,0.3058529295377608,0.34581982528898136,0.32739310097582275,0.36521513549874995,0.333630856160395,0.31477436836648226,0.3301870799951391,0.31254038874654105,0.3135555765763572,0.3574491747555705,0.31562556164081496,0.33585914717613213,0.3026296223323872,0.3189853783694254,0.31883335113182193,0.32978849139259986,0.3287052694768796,0.29560932618305663,0.30089168640653313,0.33434565183309156,0.31010108055985885,0.34943928880418756,0.3203068443738045,0.31684642689528086,0.36176563164506365,0.34872327994600144,0.3250541809210026,0.36036972076332885,0.3064143427687469,0.3138770651485049,0.2958233513194572,0.3039251440472326,0.32199790520146926,0.3292149251800455,0.32454684008652024,0.3346109880193436,0.30349427203779344,0.3252979887836342,0.36816806791695533,0.30741945759445466,0.3179432532486674,0.35571626044761795,0.31716710048089236,0.341036273092148,0.33288995678364525,0.3378838469285372,0.32052897153876214,0.3932019324656746,0.2982117925287807,0.3048081099520955,0.29305241892696887,0.3103936788567233,0.3274831603517169,0.3244064808932022,0.31460012286215444,0.3315200140614327,0.3217486298948219,0.31250691144714055,0.32614192111674406,0.31130904000130094,0.34166684852694057,0.3178533270646167,0.32651653963916794,0.35638195865249317,0.33027622850096483,0.32857840379835923,0.31871955347321507,0.32191295477079257,0.3453314028444435,0.35043047211636347,0.3466612659834394,0.35647841956093224,0.326279073849037,0.32332480594306023,0.3363886072990122,0.33752902618966346,0.34342244846908143,0.3047300787635555,0.32746696619618537,0.3645606425066125,0.3965924990769239,0.3207014640510189,0.3164416309314809,0.34630801953686813,0.33432157945682894,0.2987212661775347,0.31790685167909116,0.32786292921793597,0.33388225737854915,0.32456955908867524,0.3289453908476482,0.334842453924929,0.3112903432589682,0.326177490653241,0.29473640950273083,0.3219480449162078,0.3509559822677211,0.3479364357434175,0.4614593165723135,0.33744859637836294,0.30808857425840636,0.3080974504390249,0.337619345427347,0.30202043696297015,0.3565903594935816,0.3195083746695492,0.3382926111361083,0.34456650686597745,0.3074632484213624,0.32967405034082226,0.3298610040854918,0.3253122721949483,0.3144665983717387,0.30847329131321366,0.3156858471523916,0.3307380999312227,0.3176183680564727,0.33365093287718844,0.3228326569866281,0.33334643401584935,0.33523368320195346,0.32076180701353996,0.33528214923044625,0.3329285096902202,0.37582090077425473,0.3342851403441468,0.34659709869099736,0.3905980708622377,0.40726952701724495,0.33929236691058684,0.34106118046616024,0.30066324936951594,0.39994808818192373,0.30873873356107573,0.3081107207094437,0.2947490735317647,0.3337757006602847,0.3404215975179203,0.32370020416575956,0.33864336438152615,0.308881490201422,0.3355920580448943,0.356089913587895,0.3436225039123728,0.3089692189548751,0.30662850446128326,0.33875115258807975,0.2915663518790164,0.34255722211734974,0.29814998865059933,0.378324803879164,0.32685512301011493,0.30665903508768905,0.31323324743395675,0.3178483790790651,0.30419776341611215,0.36478982363228446,0.3076305849808619,0.3448937257053852,0.4186276738287056,0.3027190697909783,0.32742917958643625,0.3115022043711491,0.3528640555212434,0.32497291973568493,0.33797465900975787,0.3230359302398101,0.34183398912514645,0.32945148881587616,0.3371074071018442,0.31165974712649286,0.3716252544394507,0.33962002257718915,0.38511171379518866,0.3220271933482112,0.3080819119333035,0.30560763465760293,0.3168696421002634,0.2974655368575479,0.3275813818936021,0.33023516998961566,0.33941817174143957,0.36312781020590434,0.33589864644182327,0.310907339645742,0.29890181685000455,0.3169304142273451,0.32182243162128676,0.3147570038337263,0.33531394701708706,0.3426464994432583,0.31310068586160716,0.326515310965478,0.32318200496270205,0.31086963040878446,0.33170007339786534,0.32231045072223946,0.3144295736432722,0.3330516151773701,0.32780690370166554,0.352085757658799,0.32648666564397316,0.321512995634806,0.34074818800515283,0.3047898572626756,0.31243859842161525,0.3681112310032567,0.34570742368168345,0.32475632567434537,0.3524904788216676,0.3079714014269457,0.3414573446529571,0.30698778679301036,0.3474104556507662,0.32108092578721803,0.3314086679232463,0.3779931714952112,0.38383019870094687,0.35653750354108027,0.3236050032033811,0.304073548991976,0.3523023970861745,0.329667196080716,0.34171053340138885,0.32420004633639604,0.30197678964908087,0.31062976917027424,0.3148429758459816,0.3075402109405204,0.3382359523651008,0.31150098652983016,0.3154335482273049,0.37943300647512385,0.3376935408720079,0.34012961465397945,0.3485321403376659,0.3419966205220514,0.32875870750288133,0.3304585834480385,0.3231618743569936,0.31952708168562893,0.3333285245178036,0.30367041944028206,0.311390951803787,0.3082568689750895,0.31133241404712386,0.3166608913036083,0.33031155489309344,0.32351925431966466,0.3183987955040724,0.3352333521477894,0.3455186277089795,0.29584673773432,0.3634817520532966,0.3328429344860973,0.30436566269605,0.3345497339423317,0.3261312720321021,0.3048023597174037,0.307010910580028,0.3574881432324931,0.33134240156812583,0.3240005072782798,0.374202575160683,0.34212404694367526,0.31754354003058205,0.374421561403035,0.3036676336881965,0.3315230425576115,0.33079986039520926,0.3178458302220616,0.34127097213002705,0.31175292676281147,0.3115772965985753,0.3675362473310215,0.30275281636091556,0.3276578336718158,0.3151461200483544,0.32487697971912405,0.32775332623561415,0.31423170174736026,0.3072800659558288,0.3158114021562358,0.3265709354509768,0.32280453698060296,0.33428501256662646,0.33378720281312446,0.3032746624483015,0.3306769463642671,0.34191062089864593,0.31840138680105395,0.3279312009997344,0.3128543514399781,0.322093211451151,0.3353353957954548,0.3277002640819525,0.3273902601607288,0.40290043863719366,0.3689670350454044,0.31028092745314156,0.3345118479235972,0.3524393898047603,0.3198973089876656,0.32567588244822154,0.33895457385751104,0.35121253244639716,0.34255172024676994,0.3187779600705368,0.33158148286821004,0.33617568436575546,0.3478589031024926,0.43063814653183397,0.3243266521798212,0.306223011204613,0.33436823236562124,0.3411476677855438,0.3180662441978823,0.3127062909812614,0.3212369236501459,0.34388304612410214,0.3326432614824396,0.3278147169610436,0.32070279152068293,0.3376097223210476,0.3197889943310325,0.30966883309842186,0.3093255543335834,0.3407014679953954,0.3483917648444852,0.3263491637672468,0.33154517952508467,0.3208684919349124,0.32210991517242804,0.3428250097884791,0.30206236123391783,0.34061619833180984,0.3307695665510983,0.30831592611530384,0.34482472696083316,0.3218648503305314,0.3226668282478765,0.3092574033022954,0.33914922114670254,0.33414437511314554
