t,rep_0,rep_1,rep_2,rep_3,rep_4,rep_5,rep_6,rep_7,rep_8,rep_9,rep_10,rep_11,rep_12,rep_13,rep_14,rep_15,rep_16,rep_17,rep_18,rep_19,rep_20,rep_21,rep_22,rep_23,rep_24,rep_25,rep_26,rep_27,rep_28,rep_29,rep_30,rep_31,rep_32,rep_33,rep_34,rep_35,rep_36,rep_37,rep_38,rep_39,rep_40,rep_41,rep_42,rep_43,rep_44,rep_45,rep_46,rep_47,rep_48,rep_49,rep_50,rep_51,rep_52,rep_53,rep_54,rep_55,rep_56,rep_57,rep_58,rep_59,rep_60,rep_61,rep_62,rep_63,rep_64,rep_65,rep_66,rep_67,rep_68,rep_69,rep_70,rep_71,rep_72,rep_73,rep_74,rep_75,rep_76,rep_77,rep_78,rep_79,rep_80,rep_81,rep_82,rep_83,rep_84,rep_85,rep_86,rep_87,rep_88,rep_89,rep_90,rep_91,rep_92,rep_93,rep_94,rep_95,rep_96,rep_97,rep_98,rep_99,rep_100,rep_101,rep_102,rep_103,rep_104,rep_105,rep_106,rep_107,rep_108,rep_109,rep_110,rep_111,rep_112,rep_113,rep_114,rep_115,rep_116,rep_117,rep_118,rep_119,rep_120,rep_121,rep_122,rep_123,rep_124,rep_125,rep_126,rep_127,rep_128,rep_129,rep_130,rep_131,rep_132,rep_133,rep_134,rep_135,rep_136,rep_137,rep_138,rep_139,rep_140,rep_141,rep_142,rep_143,rep_144,rep_145,rep_146,rep_147,rep_148,rep_149,rep_150,rep_151,rep_152,rep_153,rep_154,rep_155,rep_156,rep_157,rep_158,rep_159,rep_160,rep_161,rep_162,rep_163,rep_164,rep_165,rep_166,rep_167,rep_168,rep_169,rep_170,rep_171,rep_172,rep_173,rep_174,rep_175,rep_176,rep_177,rep_178,rep_179,rep_180,rep_181,rep_182,rep_183,rep_184,rep_185,rep_186,rep_187,rep_188,rep_189,rep_190,rep_191,rep_192,rep_193,rep_194,rep_195,rep_196,rep_197,rep_198,rep_199,rep_200,rep_201,rep_202,rep_203,rep_204,rep_205,rep_206,rep_207,rep_208,rep_209,rep_210,rep_211,rep_212,rep_213,rep_214,rep_215,rep_216,rep_217,rep_218,rep_219,rep_220,rep_221,rep_222,rep_223,rep_224,rep_225,rep_226,rep_227,rep_228,rep_229,rep_230,rep_231,rep_232,rep_233,rep_234,rep_235,rep_236,rep_237,rep_238,rep_239,rep_240,rep_241,rep_242,rep_243,rep_244,rep_245,rep_246,rep_247,rep_248,rep_249,rep_250,rep_251,rep_252,rep_253,rep_254,rep_255,rep_256,rep_257,rep_258,rep_259,rep_260,rep_261,rep_262,rep_263,rep_264,rep_265,rep_266,rep_267,rep_268,rep_269,rep_270,rep_271,rep_272,rep_273,rep_274,rep_275,rep_276,rep_277,rep_278,rep_279,rep_280,rep_281,rep_282,rep_283,rep_284,rep_285,rep_286,rep_287,rep_288,rep_289,rep_290,rep_291,rep_292,rep_293,rep_294,rep_295,rep_296,rep_297,rep_298,rep_299,rep_300,rep_301,rep_302,rep_303,rep_304,rep_305,rep_306,rep_307,rep_308,rep_309,rep_310,rep_311,rep_312,rep_313,rep_314,rep_315,rep_316,rep_317,rep_318,rep_319,rep_320,rep_321,rep_322,rep_323,rep_324,rep_325,rep_326,rep_327,rep_328,rep_329,rep_330,rep_331,rep_332,rep_333,rep_334,rep_335,rep_336,rep_337,rep_338,rep_339,rep_340,rep_341,rep_342,rep_343,rep_344,rep_345,rep_346,rep_347,rep_348,rep_349,rep_350,rep_351,rep_352,rep_353,rep_354,rep_355,rep_356,rep_357,rep_358,rep_359,rep_360,rep_361,rep_362,rep_363,rep_364,rep_365,rep_366,rep_367,rep_368,rep_369,rep_370,rep_371,rep_372,rep_373,rep_374,rep_375,rep_376,rep_377,rep_378,rep_379,rep_380,rep_381,rep_382,rep_383,rep_384,rep_385,rep_386,rep_387,rep_388,rep_389,rep_390,rep_391,rep_392,rep_393,rep_394,rep_395,rep_396,rep_397,rep_398,rep_399,rep_400,rep_401,rep_402,rep_403,rep_404,rep_405,rep_406,rep_407,rep_408,rep_409,rep_410,rep_411,rep_412,rep_413,rep_414,rep_415,rep_416,rep_417,rep_418,rep_419,rep_420,rep_421,rep_422,rep_423,rep_424,rep_425,rep_426,rep_427,rep_428,rep_429,rep_430,rep_431,rep_432,rep_433,rep_434,rep_435,rep_436,rep_437,rep_438,rep_439,rep_440,rep_441,rep_442,rep_443,rep_444,rep_445,rep_446,rep_447,rep_448,rep_449,rep_450,rep_451,rep_452,rep_453,rep_454,rep_455,rep_456,rep_457,rep_458,rep_459,rep_460,rep_461,rep_462,rep_463,rep_464,rep_465,rep_466,rep_467,rep_468,rep_469,rep_470,rep_471,rep_472,rep_473,rep_474,rep_475,rep_476,rep_477,rep_478,rep_479,rep_480,rep_481,rep_482,rep_483,rep_484,rep_485,rep_486,rep_487,rep_488,rep_489,rep_490,rep_491,rep_492,rep_493,rep_494,rep_495,rep_496,rep_497,rep_498,rep_499
0,0.31715268343074354,0.304723753442179,0.3814710767959849,0.3330907583485413,0.3225349633904211,0.33441678589919616,0.3092340185546435,0.33096725637522784,0.3371548423655577,0.3175518259378657,0.3192888844488202,0.3035666886232435,0.32990379980496887,0.3510823493128856,0.3277400383500775,0.3079344469902347,0.34177542618299617,0.3147763225104075,0.3057430961572919,0.3252255866526383,0.2989733011859169,0.32476649362280097,0.3114673558117633,0.34919134000616314,0.324116704605278,0.31908208911235875,0.3373253906665084,0.3259814516404969,0.3018504167281112,0.32504852090880454,0.3468771303832739,0.32065521674545333,0.3375480009249556,0.3276239428322,0.3227131912466891,0.3348335106905675,0.32589746531274516,0.3311294651516505,0.30684021351015767,0.33201847605646845,0.3063243686855745,0.3405646906175965,0.32919743939050594,0.31931531666678187,0.3338075114802209,0.30618816547149963,0.35087261687458604,0.36111305633681645,0.318911431786269,0.33112268649473864,0.35425860263519443,0.3006690248600884,0.327084035558295,0.31014733557653806,0.3166871840533957,0.35267496846494056,0.30209809339041077,0.3049109290402531,0.31250432741114637,0.30668217453601165,0.3204756316141359,0.2974558902772312,0.3370716830070376,0.3430212382773576,0.30284339249767583,0.3394678786818045,0.2938154024636011,0.30487907934356623,0.29315649561507745,0.33351900829225356,0.2992262353085243,0.303851234347107,0.31973405812500905,0.3717292326519463,0.3390314696120916,0.34837185981169894,0.32028273753283665,0.31529332756911344,0.3032038169951793,0.3355157133065773,0.33393061854727124,0.3366240279488122,0.30233350973551315,0.3312811560036083,0.31974695602738207,0.29360273129800807,0.3066901276360044,0.3314830269043984,0.32855630849003503,0.3365173767360694,0.36522706297935725,0.32697428020475744,0.3164160089117898,0.33469719976339113,0.31431759044327573,0.3004546044834605,0.3208530839977826,0.32222991794954,0.30324679956172196,0.32037499574672934,0.3269998418622525,0.3143240229157261,0.3256129459668168,0.32726838929115465,0.3036596398021229,0.33113222589526914,0.3333067496588726,0.3167568472716534,0.31970454789366165,0.30320049571113794,0.3268650676676327,0.3182671426594355,0.3074054714942941,0.3278303038808874,0.3351154992359976,0.3032980569265195,0.32004476113696734,0.3055556071975323,0.3197534095878134,0.3107735060598978,0.33119560941751425,0.3059565239279904,0.3371585284950576,0.35129937219250784,0.3164694534925924,0.3115000221748859,0.31368252195219576,0.31946412496147997,0.3037071549138356,0.3331472007893811,0.3083104302827252,0.29954942773583776,0.3237750186986332,0.29844406452036254,0.30594652869309835,0.3008809014112492,0.3390742588038243,0.2996567931110158,0.37927836895617123,0.31424432245260264,0.30613768015759246,0.3236099228494015,0.31042154983564696,0.3152776197814315,0.3410237814456415,0.29929016771011735,0.2979895965783304,0.33949665454198313,0.31401526034437444,0.35492808642688356,0.3199926367969316,0.3039751058836922,0.31058171726874206,0.3105811045648962,0.32373004401622557,0.3213859371567091,0.31554551124228153,0.3128363582270085,0.32880178569873875,0.3301472166398241,0.3456936426501852,0.3153523839445617,0.33167258464346205,0.32124574918673987,0.29477097510440997,0.32445438023408607,0.3195351024238107,0.3041160487812042,0.29882307501119015,0.3186641062124362,0.3234815007710431,0.32588339689436746,0.31259777822017154,0.3216164617922666,0.3196286076932297,0.3075525597664663,0.3171373906545164,0.325941773790462,0.33288129514361414,0.3714064499579632,0.3008185507332029,0.35306896419618206,0.3219513784226156,0.32858274624672956,0.3176078700162906,0.3126001992792025,0.3294026105199158,0.32495023866833334,0.32068566834015133,0.2913908890348289,0.32181805603939606,0.31542971666974534,0.2961125743820003,0.31949999079238606,0.3083888289602708,0.36460298400071317,0.2941302786272432,0.330616906244248,0.31997490987636357,0.3178181977926583,0.30425398167305717,0.31300030815696955,0.29709868857055366,0.31271258901805343,0.3161538719021558,0.37461219759281444,0.31197979742818094,0.32005538474896106,0.3137858925416762,0.3012453192462815,0.319281943384725,0.33107450157035534,0.3249104948033666,0.30863746187466357,0.32382728852756604,0.316739126739189,0.30278215877946413,0.2971061759821457,0.3204673321487703,0.3329668775867351,0.32872816144340317,0.32039036434614687,0.3407453671606769,0.3079051509045959,0.3203424518280097,0.33420625856235936,0.30785139090573693,0.29506222711055596,0.3326857546335032,0.3054066564935304,0.3081547592550913,0.29990663367543735,0.313838288670991,0.306453602154783,0.3236115729359104,0.3095665660105825,0.332123928622598,0.30372366244897553,0.2957340109081392,0.3038568873846902,0.303572598536388,0.32280334798875643,0.3191621050112091,0.3139947542515592,0.35211847157949816,0.3027486604486097,0.31623654930277895,0.3045723678882899,0.34000145759892275,0.3125839035772361,0.3205615856041263,0.30871776771902903,0.31133291359356546,0.3061373485699337,0.299416594541393,0.30970172221558145,0.31185207506126383,0.34960285671910857,0.3052476991180338,0.34390216170085747,0.31667296153195246,0.3337596240308148,0.32323053237467436,0.30831890630959374,0.31892228882516666,0.33164351951483695,0.3425995794389273,0.325985318328157,0.302538017465885,0.29890725793950484,0.3357375860100998,0.3194786560729857,0.32389930337697087,0.3058191850685482,0.309178142689083,0.35320872341907666,0.3007629209857489,0.3075061969440135,0.3093997387779356,0.3145838492441591,0.30800610260012584,0.3102771966613881,0.3081610131743708,0.34168643305398166,0.3635383850482612,0.3126984243469678,0.35437377870817577,0.3374780121941986,0.3104497606974487,0.2997739317607483,0.32399943499088624,0.31327557255900307,0.32625331103037286,0.3201874215820435,0.30129983018718665,0.33916260274079846,0.3228052299405656,0.31921780065105143,0.337379328777905,0.30961819851042977,0.3173234346426444,0.33417141551936064,0.32812628091506124,0.3118092094387629,0.32019718791313595,0.30745267709291046,0.30443390541264004,0.3132591699785082,0.32700152070533417,0.3115954905237201,0.3041735871146066,0.3290315181501875,0.2985994247511399,0.3155237748314229,0.3142865922184773,0.3123484616182402,0.3708526651889338,0.3230932057320662,0.3044277836740626,0.3123454766113888,0.3159606218138552,0.3247133016315812,0.3216234116171396,0.3172578961231861,0.32744778294456717,0.3254090782140301,0.3016946902022923,0.3102878553184805,0.3166689925147207,0.3356124755484187,0.32714851086940544,0.30343821691309614,0.3059489129395813,0.3243221416939177,0.3365030320634833,0.30293288199811597,0.2978168456378557,0.3313487157008283,0.32334268745084105,0.3211106483499151,0.31523948503433485,0.31063369670642216,0.30658268690271717,0.3371104076971349,0.3040812968915401,0.3170607930278,0.313222577895299,0.3163805973232963,0.32489047154691864,0.3120674779749112,0.32452078729865746,0.31667934770076955,0.3365017673703735,0.30706632073550094,0.29723336727264515,0.3068065541617262,0.32605929616738133,0.31560009357176977,0.2978633068129391,0.3169829972102428,0.30256652458645555,0.30446409440787187,0.3185204902037412,0.29831076368283166,0.30948445203607633,0.29683250586092863,0.3270489608113286,0.30096042302157283,0.3091543141317479,0.3233270377221059,0.3427369844310323,0.3160469378991231,0.3049884317542949,0.31121925339643164,0.29806473045342885,0.31267538970660336,0.3132064648061789,0.30291819784546936,0.30899147159815243,0.3433484745091598,0.30673435375426983,0.30598771459167134,0.30442196722992515,0.3074840535401789,0.3039348225841384,0.30671470669963513,0.3200172378015859,0.3424804817695996,0.32469571301369793,0.31113944033742746,0.31115965635086984,0.31483188216158664,0.41805318659836865,0.32678595721641673,0.32091472761291906,0.3180291308189146,0.32921210767654185,0.3371080779798403,0.31386305828512984,0.320937449091788,0.3584224189895943,0.314760970150775,0.3205464831490547,0.32067848476744293,0.31099740736087017,0.31941120577336074,0.33697593552462146,0.3153459557294683,0.3233038878231223,0.3136011827819391,0.3350555133066516,0.30757217026739053,0.3309909580765059,0.31510020229920227,0.35189831506740404,0.33568875792943065,0.3145980712557118,0.3039750208995022,0.32688186535031044,0.3110163791317427,0.3103197840936732,0.334397496724737,0.3118406089397804,0.32192925887785256,0.2944161586532089,0.31680461723745706,0.3273340654263743,0.31299438599830787,0.34227309077378854,0.32946106087403,0.3455951065907565,0.31765140823812327,0.31105718606324756,0.29690100533721636,0.3021079254164114,0.3394149194541129,0.3231035615323009,0.30056881934632895,0.3104965257027364,0.3716844181854391,0.3140558547987939,0.3414819655041203,0.3680299706867742,0.3216328427815003,0.31045591143298507,0.3108007378328864,0.31316522724856793,0.3075702189590979,0.3173300390145892,0.38662532544643513,0.328137898053275,0.3113975861635637,0.30142589793817565,0.3072527520369041,0.33036345268221556,0.3262800147643947,0.33648959233003795,0.3273719020845555,0.32930943660158923,0.3226923940928462,0.3059764572101204,0.33736658415655374,0.30333383098373623,0.3176398712410252,0.30855509242408813,0.3056688689703611,0.3075887428259577,0.32352608520120213,0.312867010107864,0.30950246803161424,0.3332949060460699,0.2956726161164821,0.31269342044920234,0.30428812357770546,0.3238822227351374,0.30164935010306404,0.30430995436419556,0.3143702199085698,0.30348322012328005,0.30681902331392574,0.3246101838523205,0.3164220457191816,0.30581426105769893,0.30670614804874907,0.3307951823949772,0.3396474528550157,0.3041875376452304,0.2951859502488422,0.3612022527989037,0.3416862823178126,0.36522463003434646,0.33150913630721635,0.3008508661412747,0.29239742553647396,0.3141862211610198,0.32241243704756284,0.3302217699322353,0.32915957523562456,0.31242233147355386,0.3055405300510615
1,0.30231666917161365,0.3450399875817856,0.3294701604337305,0.3120172786946179,0.3428874493063649,0.3453473560406838,0.3055423457035588,0.32325791727268866,0.3064809957499879,0.3219803435275591,0.3035650973621381,0.2999841441642587,0.33966621420303966,0.3167703763501094,0.31986643731461717,0.310257443389871,0.3609877502846003,0.32663901801610484,0.34519452271567286,0.29071789576717805,0.3065982871488009,0.34797687675051747,0.331008335516397,0.30755655205504306,0.3146471827492809,0.33620342849985907,0.33269939526976944,0.35401284570295244,0.3120833155824626,0.30035344657294594,0.314878298090444,0.31827724073163643,0.30483756918995375,0.29507602153266493,0.34685638201757896,0.3251037965780631,0.30088512974888215,0.3177754384473136,0.32072204934339277,0.3228255690995599,0.3126466014623758,0.31622994563823337,0.3162304289101555,0.3655172764467455,0.3634792985904148,0.29965980645280926,0.3313460802768216,0.3341561235450571,0.32354418162822146,0.3359387343165552,0.33268124063855276,0.317990524705669,0.3373182430463347,0.30320505239427425,0.32766064300842795,0.3467593689403381,0.31917357834265164,0.31129177062339325,0.30028361202843556,0.31325978743997407,0.3102740637776578,0.30386298018651914,0.31838893346361546,0.33099578708318633,0.32222140211286254,0.3033110191551236,0.3061437525259141,0.3184727932629273,0.34537353707060464,0.30521520494666643,0.32199669796184377,0.31310897453267544,0.3055506151299824,0.3201278805092953,0.31164741290589326,0.35759157345595305,0.3126668338819881,0.3174195478570282,0.30412229668424434,0.3008597206190304,0.3196197332849512,0.31405860027033106,0.3008311025219782,0.34257300938615043,0.3520198992507814,0.326283779370661,0.3109260551691549,0.2984275565454971,0.329695220447241,0.3068153294535327,0.31452839002803623,0.31478547307069316,0.3047371922394296,0.3215657441112034,0.34797473415771146,0.33462930474997643,0.3069489717084818,0.3267290829750718,0.3076602779565997,0.3272252690157901,0.30766919583205377,0.36176017568364227,0.30789249145891784,0.3048937977960863,0.30833169828634155,0.30799399486946816,0.2999420844486348,0.3290382019105635,0.3137421963328564,0.31190790515050776,0.35173998528258255,0.3970961431388479,0.33425535415665386,0.3172474415348484,0.3137901209786119,0.32440317237787,0.3420261510249616,0.3191310129671834,0.32013640669095506,0.30445512499209204,0.3045364931194062,0.32215534942840857,0.3048989634039204,0.3244445767436214,0.3581239589877525,0.3354965326967683,0.31010208564754715,0.305468743350582,0.3110307268296483,0.31744773049745706,0.31267125950451685,0.30139371574297186,0.33482531667793525,0.30943758951723604,0.3345521625729606,0.307611741062422,0.32624085963497074,0.32569543174052745,0.32395488539574513,0.353458478914047,0.3016260701320311,0.34080583407043374,0.2967649491917119,0.3113183913925147,0.3084617343174998,0.3251228681105605,0.3030108390612794,0.3036158021090492,0.3183513559282193,0.3035825019359919,0.3207012656877052,0.36279580707543896,0.3065684547503678,0.3125076102083887,0.3077817406394197,0.3252595229928198,0.3148332730531126,0.3243724413653097,0.3252395450740268,0.2974691180010202,0.30345148659966054,0.3364227977111315,0.32594447480920863,0.3616426886045533,0.3388101854501378,0.31338738898531127,0.32244506488882513,0.3168037667707966,0.3486184428653957,0.32714467593008834,0.3027508705509886,0.31981041059244564,0.35962240236374315,0.33507147766730594,0.3038557234891463,0.3184277260805269,0.2912045706904559,0.31531607009015955,0.2978553400314029,0.34262733507822596,0.3110390105220079,0.3119495644025447,0.3098086420291943,0.30704608820422713,0.31064425087794373,0.3203914505196902,0.3127337979274121,0.3557699958603083,0.3003229218127633,0.31792469817315555,0.3206538686500921,0.29837748802418795,0.2946707449850767,0.3097642455732524,0.31316850508399363,0.317887400133278,0.31525707988076956,0.29768794596548054,0.3125091123926762,0.3073867199308817,0.3142657291705261,0.29227934222712254,0.34431206280547916,0.3441404296158091,0.348657419211145,0.30315281380210457,0.31004944572248344,0.31484750812392426,0.29666530718920076,0.3187571333537763,0.30376778512998487,0.34059409121754863,0.3266522898762655,0.3073626677626545,0.3082337895447392,0.2919676570277002,0.3095246307020324,0.30685682595913205,0.31635830892388145,0.3153728863904338,0.3157208234622705,0.3193308593505959,0.32469246912654726,0.3126522020976118,0.3272776550762901,0.3060507780577039,0.2998323040124547,0.2969657849740596,0.315624399185782,0.30470241432649237,0.30992017831582486,0.31336725433679113,0.34682937071114583,0.294491022449722,0.3042965195803779,0.3211777042498991,0.30149215108415695,0.3047924618190099,0.3070854382951992,0.30355803796420433,0.2987580171618234,0.31701382207434226,0.3129342678011778,0.3302036908515886,0.3078744515921498,0.31229855442574567,0.29601890933713304,0.3099619104358021,0.2986155281931682,0.31277555332016327,0.31235630272739384,0.30466176273377144,0.30971664269007465,0.3022260244967156,0.3121417969450116,0.3192695333888987,0.3466632085457696,0.3273953296929755,0.2950753387942883,0.30007647166771334,0.3556978353652465,0.31409221334941917,0.32320255866690706,0.3261397173094626,0.3213406334284695,0.3237667548343961,0.30857022843361215,0.31505107372428875,0.343162984558523,0.29968943497572914,0.315235449131403,0.3385543503848777,0.3129109426600151,0.3115348659144483,0.33396322720295635,0.29492467724999705,0.3163326951426999,0.3170142902134891,0.34339594558671893,0.32530909041968287,0.32496190610864556,0.30855120408599146,0.3155385900601944,0.33483682894996997,0.3051913984726836,0.3139305322829753,0.34311159438891303,0.3231686937356176,0.30421546306993114,0.3048672159981959,0.3396659691049137,0.3023722785348603,0.30967995349234867,0.3017015539421011,0.2990736107636012,0.32381759058189025,0.32182472671291473,0.3620098353524035,0.3565395140341897,0.30838576408683227,0.31338844980450486,0.3124182363346496,0.3213979347949381,0.3260693112718922,0.31342662109854125,0.32736288470736674,0.3052050026405032,0.31207895948861325,0.3401127015280886,0.2992187394212795,0.3050748409399714,0.3137443037908064,0.3345948115855468,0.3032711565217788,0.3026731885767902,0.2990412101493928,0.30518979666788215,0.3238796162313626,0.3007522568167149,0.3086084048633529,0.29160041323392183,0.333917385770805,0.30415881393775634,0.32523293978740214,0.3258649508789015,0.31077505206305867,0.3171259902748166,0.33961100910571496,0.3297354815794466,0.3068549279589642,0.33788202675480095,0.303363224366297,0.3190010840209346,0.3287405931642807,0.29387314110889895,0.3106312132427126,0.30850791017475676,0.30962118871367356,0.31665015585223344,0.3333750946105575,0.3137786570958875,0.33390412026397426,0.30431092437528345,0.30779558027919324,0.2992861977712892,0.31316339032550494,0.33691989672675504,0.31070428163322183,0.3421780035717402,0.3199070475180217,0.3320511986316963,0.31097283690439154,0.34200847825211367,0.3133975463952762,0.30990665009373863,0.3206083134887655,0.30934233178155346,0.3162789178016841,0.31712728363922094,0.3113634562266589,0.31142200645354695,0.32829868301770315,0.36545792191668064,0.3063161928064876,0.3078012547387233,0.2983482406230308,0.3284468005237319,0.3044427461411863,0.3159729382392248,0.3154127762121083,0.30999211921532943,0.3205407875130787,0.3082258359904452,0.3068644701716136,0.3164032259896049,0.3059034238062225,0.3029600212400065,0.32714507428141526,0.31158511947265166,0.32989618242109664,0.29737362065276257,0.3120454296522218,0.3134358587011704,0.31444564568032274,0.3294391943722529,0.31436594626584896,0.32334899140605267,0.3031481137868028,0.3028661041043237,0.3190935492691956,0.33759660006797576,0.3288653013496593,0.354195908931128,0.30677206448914845,0.3055288482303874,0.3014908672683393,0.3256708497668087,0.37402534773877805,0.294334436396667,0.3278774616876422,0.3180024559281148,0.33567782714361194,0.3132157273481244,0.335433187333864,0.3105091041348424,0.3329097905257035,0.3480019728650805,0.3984585268050635,0.3257438842254249,0.3178821554832091,0.3603697780402965,0.32789133459973185,0.3127076370269567,0.3057795881197959,0.30939639946830877,0.30972532915404677,0.3181924379020258,0.3300930934078924,0.34375867483011235,0.3264281310825764,0.3012036951151627,0.3003545319580556,0.3113480593020475,0.32908232249467584,0.3029118150767568,0.31116751286623046,0.3241062846639532,0.30061615482063747,0.3348142417462264,0.31512796235458806,0.3380734333571895,0.3542091426086498,0.3104223546488264,0.31885813836648075,0.3002071656674365,0.30610102506202286,0.3352354772037562,0.30736003109990695,0.32421325657708155,0.31987971708373253,0.32633625351812323,0.3257342415962129,0.30188438067325934,0.3111228008138456,0.3471802033959068,0.3526678569905005,0.32742677820008564,0.31304443407284877,0.3177654376357737,0.3178549306374867,0.352370253751494,0.30042016132144417,0.33647321517063394,0.29693457791438654,0.32105005822267485,0.31392851618227896,0.3370166556574059,0.3695949020782847,0.3382183489151807,0.3066546302169458,0.3035158349956939,0.30777075251309605,0.32223798029882855,0.30655079599133217,0.30008605837414387,0.3102989140594647,0.3088759635391739,0.31522159793008286,0.32262503342047616,0.300109648045296,0.3104615947287226,0.3355106472142214,0.3629945492265375,0.32680509455301715,0.33349294878997204,0.32435479923650534,0.29487555866663095,0.31899952425764216,0.3021082445151211,0.3177003770762333,0.3152469246931616,0.32503690183290346,0.30151887401928307,0.3178157744907808,0.30329601037301285,0.3271431087456717,0.32046798881857486,0.3016616049475049,0.3269940335835539,0.28927075323208007,0.3476044297884573,0.3241173904409799,0.3144706640940139,0.32101803368020854,0.31988279243369167,0.31006635954974077,0.3160891207814581,0.3148164588663917,0.3271326743064774,0.3664659849765536
2,0.31405767974161697,0.3371610510328667,0.33260300774788165,0.31503889149653314,0.31331039250044823,0.3303807965994484,0.31896497504986426,0.3204247140835385,0.3447918127219615,0.2986598819504044,0.3214848830682309,0.30878887177003456,0.3196880795061493,0.3195876327503427,0.30903264908054034,0.3482253399242111,0.31602000222063636,0.30338492991257326,0.32148844404004434,0.3047634777260702,0.3019797644314798,0.3137234008453926,0.3139395623982103,0.32165651912184784,0.3124279887922919,0.31544124392667466,0.32303794554313536,0.3066494040606864,0.2876374538001686,0.32575985509331434,0.3263410784315314,0.3312413711646264,0.31572892211770764,0.297205193470867,0.344320937511895,0.3222800088751414,0.32973513538620003,0.33677879907078206,0.29702697827156604,0.37263295147300035,0.3025196117117057,0.33561594136966305,0.3484362986948246,0.3270745500333083,0.32701184116137927,0.30350375484968395,0.34215721592445286,0.3206039102543138,0.3073697114391511,0.31852924554849976,0.32216531703334744,0.31833479669044823,0.324772015556568,0.30078586347014485,0.31299649597151086,0.32650897562336106,0.3037919729218444,0.30205266074661064,0.30291695469400187,0.31539672032579347,0.3209129135595369,0.29691160518086984,0.33455586460565734,0.312630346122472,0.3083199521409602,0.31367563432457,0.3204580701252957,0.32217899686299317,0.349440364398062,0.3077030776228004,0.29889811634679375,0.32045956969753925,0.30988823341854177,0.3324849168312287,0.29454978077732996,0.3030041638892154,0.3070419997897441,0.30954226095464377,0.2975863377960217,0.3420394048151186,0.3052124013330063,0.314836468458621,0.3037495858558073,0.33125487299944606,0.32633154495394123,0.30274820016327136,0.3257514335913178,0.3045771616144003,0.3193016289706305,0.32241097185432316,0.31767501635898654,0.29979838537613573,0.30930126388347945,0.31890939847206046,0.31512606678333166,0.32615746598347223,0.3245325100875638,0.3168289931751605,0.3068455716886725,0.32439249983449087,0.3209520794606128,0.33555888049744426,0.32108470249693377,0.3225347364131393,0.34058089436552236,0.3048550038471663,0.31743784663543984,0.35327705398316417,0.3061787675765106,0.3026235097226917,0.3022468908895011,0.31625860465147115,0.33484224463526774,0.32182659551550263,0.3111117247884868,0.29693957151088496,0.32760706089947506,0.3331659870713929,0.3230485436541414,0.292117640890038,0.30071594074475855,0.2939575349172606,0.29525787509268725,0.33480221384217984,0.3142224508810301,0.31395943763139844,0.31490565627215383,0.31248261219397633,0.3115795379199956,0.32408047553533514,0.3215872173730731,0.309969916583954,0.3323468264153181,0.2985242115913578,0.29593768507168455,0.3121399367209062,0.31795714057892055,0.30700637647969303,0.34996194068748127,0.31468123463100295,0.29918660799608643,0.35996654936476813,0.31859975019318487,0.32119075309497214,0.3103708717795116,0.31141051161417277,0.3187837042848739,0.3697271599992479,0.324164733955421,0.3088044564474582,0.3212157322943957,0.31000428401112246,0.31467292277613373,0.33758238593278,0.35169478739271665,0.32155800189947686,0.3107998403439898,0.3174511291962075,0.3292411949917557,0.3227225515747893,0.30245911693691285,0.33499205763388645,0.3074109033151848,0.3343533781411322,0.2912465685972827,0.29229412857440584,0.3220408619129319,0.33219087090417954,0.3225994265176,0.3147208994719234,0.3374462641210045,0.34220851441578604,0.31946373117157606,0.32225528913596463,0.3022460191187649,0.29471373552341545,0.32448445276805554,0.3257747001120708,0.3157171394291371,0.319079064534761,0.31425216515609555,0.3213207250398097,0.32887430715192584,0.3078057814851744,0.3058098076268011,0.329510662505947,0.31726651629626657,0.31557894276943466,0.35128198105900377,0.29719463585368455,0.31700551746874783,0.2940149968571118,0.3017511915299912,0.31286653059599046,0.326006498538251,0.31107699186399984,0.3159225591315083,0.31336617190848154,0.3201619069546494,0.3208469950990952,0.3093990741540132,0.2984450220806755,0.33549734018204663,0.3252065024129076,0.37700268958783095,0.34055033612954205,0.320992125606988,0.31922959448732485,0.31735280954195433,0.3152970268453187,0.3092095890525133,0.3183834605739427,0.36388672413879025,0.32524911221671116,0.3224245294140746,0.3074053558057675,0.3241655298830114,0.3246307849000359,0.31090561955200713,0.3452799035694652,0.3035122646870757,0.34648196195549896,0.3507098787674218,0.3051839043929458,0.31432648192217244,0.3080965678066505,0.329923184080014,0.30784083437701726,0.31507370760433445,0.3138238142418155,0.3197365910112688,0.3121769741207677,0.3170529176807515,0.3113750514508893,0.35798652765968286,0.3582174320240915,0.3190374449653227,0.3301213152014035,0.31966168507265225,0.31754802320037906,0.31766781895276036,0.37998356538067,0.3395409970208293,0.3432644258974834,0.351498493054118,0.3150699453300081,0.33348593505356583,0.3224586326056879,0.30895093693335646,0.3289458670377644,0.3303117850492564,0.29820081554522426,0.30968163420170913,0.2994941129817029,0.3107234842069031,0.3230300641508897,0.3232432667036453,0.34588482818539046,0.33266202044374843,0.3200529383777245,0.31416449828140547,0.32804025819637317,0.306708786572512,0.30197294582788253,0.31694706107949766,0.3279467625464974,0.34478623695755783,0.32366420947981533,0.3302428019862723,0.3174905265416213,0.3187041878224196,0.33649597994853475,0.31780790921536023,0.2967092122508408,0.33165257129199455,0.30353293175176166,0.30653810194323616,0.3358457268665677,0.33943228759808974,0.31437273576124364,0.3215147382429601,0.31312787817061516,0.2933229685812261,0.3294515828508323,0.30777064337054416,0.3154835036047109,0.3360555523112145,0.31661155266954355,0.3420597399323935,0.3156335651864715,0.33716230989551105,0.3112246887823315,0.31355118137957194,0.33372905431046995,0.31689706889879254,0.3262175395174266,0.3591563623911795,0.35973890697896327,0.343143494216395,0.30024736438443245,0.3101819953663784,0.33343153236393847,0.30670832091404615,0.32414962153181387,0.337088210762151,0.32416430419705206,0.31605688633154494,0.30614086962570614,0.35156454619491495,0.3225518831717861,0.31170849879481544,0.321789159793486,0.320221936704784,0.3034564618518414,0.32301564570376795,0.3202479780597649,0.32609743722199885,0.31007345687203625,0.2937690204899976,0.31759613933048575,0.3311799831204457,0.3170863643422478,0.3021877309080357,0.3245475875490258,0.3059117561909602,0.3180580021270822,0.30048042849259327,0.31672258141330284,0.3341043206314696,0.317677255614387,0.31371963037886896,0.30045194050286533,0.3025101394348727,0.3253747189080242,0.3254967895210764,0.3290199999645179,0.31483533581492507,0.3324519966083276,0.30689546991247624,0.3217069909389376,0.32856364396372106,0.31342593773278754,0.30537604676923363,0.326527835605163,0.3017783371347242,0.30388401993294567,0.3297944783443889,0.2957996699466269,0.3304613686211698,0.2956523695320722,0.34233108184066274,0.30635985733852766,0.34087710343023536,0.33044971239500565,0.30696485340402313,0.3091820688202191,0.3331074382044838,0.3109419682790186,0.3022904830955916,0.3349024646568778,0.31062085183500104,0.3131582808892763,0.3157459720908171,0.3049912967356091,0.3131547197446126,0.30628160705006274,0.3160144666239832,0.3060893930636871,0.321182858381574,0.33283958453643164,0.31139776714470135,0.33319537987650955,0.3089863794704459,0.3020748522068886,0.2994392926344993,0.33243360033118796,0.296066522591644,0.37774687409506597,0.325935847509617,0.3285628438364316,0.30006162474030945,0.3178941418897916,0.33694133388622877,0.3370561215473576,0.31802663355058985,0.3082471593434829,0.35867494724491755,0.30846792444278315,0.3203666452854848,0.3017910436076902,0.3247211351158837,0.3137707151032336,0.38547039840035446,0.30067548814711037,0.2994060826347865,0.30924231687914194,0.3285910616769617,0.35570672780798096,0.30592576853189163,0.3152026619244235,0.3665710739406754,0.30133708290146216,0.2978958754813626,0.30724161911399006,0.3400462507893875,0.30698819566692404,0.30704355972743,0.34920916814503616,0.2999789087520146,0.30798268526410455,0.3263886036376268,0.3150350999723735,0.33402299570467914,0.3246561117038532,0.29698370223559006,0.32769511449392164,0.3266064655802149,0.30538675092829176,0.32696922046436705,0.31750929573844067,0.3075610163446328,0.3170500673073315,0.30287844188293567,0.2992779156369366,0.31510608436348014,0.31754871983481525,0.34688596812347017,0.30323334210008585,0.3401376106977664,0.36873183581035274,0.3672037305563534,0.31714420265437004,0.3123062149396377,0.31971209879143386,0.2982447005206202,0.3049540866206438,0.35098901304951596,0.30605811132609384,0.32917445789346994,0.32415305780435943,0.31362986485244415,0.298922365575948,0.3406574349562346,0.30191431185759854,0.31642817530842227,0.3004816647620526,0.3136139432332422,0.29821740231184213,0.29638257412235763,0.3099230527017056,0.3363718812168016,0.3323137483774824,0.3350115095760608,0.31153195996542715,0.3325997591022577,0.3112123130728877,0.3241054624150965,0.33050949490434817,0.3113874489267215,0.32851520049367783,0.3238233905363065,0.30613704542996645,0.3195399161917814,0.30725429008749333,0.3198489993137633,0.33084612510241074,0.3459617127940711,0.32968440829801327,0.30391615000076033,0.3022796155599304,0.2965684250551898,0.3138231430800689,0.32304477791254166,0.3110764764109468,0.3394900025418796,0.33497772574742773,0.3070397832698022,0.3346810328822179,0.31265210703184537,0.311773197059763,0.3060662770974095,0.30749555101817494,0.30310154449044685,0.32885216389647454,0.3139807262294615,0.34119236201585607,0.32232304877639095,0.33965869619306865,0.3355665525344629,0.3181912030849835,0.3349775283889043,0.308556376354927,0.3129908474883222,0.3137948312378953,0.32014398333712457,0.2975823223994435,0.3261879918281626,0.30688117159374795,0.32356341867615634,0.34824841019696784
3,0.30220911427728836,0.3545695351232931,0.339760021618308,0.3228392899162318,0.340520971365015,0.33445502550041323,0.30542575427057606,0.3077951042121734,0.32271350362098783,0.30719752558308666,0.3163512455659907,0.3031528545536504,0.311345336533826,0.30343305497812895,0.3263340238382851,0.31242831778337365,0.3342632654260887,0.3009251512797557,0.29544094066956583,0.3182087005307027,0.30233401334461085,0.30185180378392007,0.33834774291641784,0.33256473066909087,0.3111771951164283,0.3566516441790467,0.3139004406145246,0.31464837825448533,0.32118621242381984,0.32664701244860506,0.32735430047459135,0.318192439042264,0.3094787834529066,0.3068273356859032,0.3144195414821468,0.3115290142037729,0.3278929576783585,0.31202886276716557,0.3107539038450322,0.3132051602571592,0.3149506121172966,0.3229699133928972,0.3193335169075474,0.3641659347061357,0.33716279460223697,0.30812120817224636,0.3473409303457766,0.31207355704141776,0.29699763716024263,0.37600603642705166,0.32548707823622486,0.3469791962738168,0.3087832573373706,0.35283113961839024,0.30939646449572356,0.3500817033678659,0.3026055690124174,0.3313330987337596,0.3288308785962999,0.3289480602313239,0.3185803199352748,0.30803574049309357,0.31280898233929566,0.320130256848543,0.3198306056290344,0.3340259966016794,0.31912906229531773,0.2934703080051052,0.3021352541546689,0.3183032729208268,0.304329594975491,0.3282602850453703,0.3103855620685014,0.34762270442452614,0.3331804659526588,0.3092269922435679,0.3115792651699122,0.3161753293130285,0.3189247876460772,0.3408626380164979,0.30847805525077704,0.3332419335951732,0.31933981254040694,0.31239240390388695,0.3152445072661145,0.3203601782970096,0.30590042038860754,0.3142904448754814,0.3488239969650081,0.3264308211552126,0.31622761306430786,0.3275901912171226,0.3102605775979903,0.37254541043836525,0.3579512111981651,0.32146047266524486,0.30996603025354996,0.3284581070293317,0.3395238518746605,0.3056868855242327,0.3388930692659301,0.31753973296889526,0.3374350452313285,0.3332787303241206,0.3080416391663314,0.33636511502988253,0.31778548649020244,0.3659727913155471,0.3124863910741795,0.3021914638569729,0.29960147659343817,0.3215243385700879,0.29902723065867287,0.30283114737841343,0.32018739535239005,0.31968009488261706,0.3172274503830444,0.3260328534928068,0.3274276832156046,0.29905817896220876,0.3067449785093524,0.31282205437731403,0.31676860115017236,0.3311511919159719,0.329854908076936,0.3158086136172833,0.3591299474254569,0.3304514054883247,0.3265181455357873,0.32677837554891787,0.3024470474371936,0.30245829724053025,0.3186438269380482,0.3282917611896445,0.3388420219696617,0.32309567559640373,0.33068866926249174,0.31681489148394854,0.35098672631359845,0.30088417519704347,0.29139063588862724,0.3456848513665859,0.32606873543986165,0.32100961302436426,0.3517679229813241,0.3217277446088317,0.2931322378770876,0.32204536844079107,0.34041024512621976,0.33651908791767154,0.3161859374232994,0.3459029547440774,0.29448992763845533,0.32541470486174356,0.33480322972516197,0.32088980597231204,0.35218240169260423,0.33181158228948615,0.2964314674837373,0.29897589136319935,0.3084198147812332,0.3074316275296961,0.31620670036106,0.3317732293863509,0.3503220813618222,0.3220680534571948,0.29798271965315076,0.33134378470248677,0.31579472358315475,0.3255073365905504,0.30220848086293856,0.31748303980610404,0.32516539940835726,0.3372752393030126,0.3172975658350057,0.29776863433149026,0.339503109409335,0.3039936211805402,0.3271174806233307,0.30917474917355803,0.3214727043807809,0.3017253917488366,0.31076631003609684,0.29437326138963227,0.313589377955633,0.3141256149553334,0.35031075979562776,0.3161737623897662,0.32383801353345565,0.3079294530930924,0.30017677692523614,0.2985023647173314,0.3131221317451369,0.31964706478534527,0.3082443982578268,0.3436027807541816,0.32103370798153763,0.31769433827338406,0.31214389080522237,0.3091369942128664,0.37030826612442136,0.30586698701802373,0.33093709573070546,0.31840092752825433,0.3194458898193305,0.325158819649438,0.3305370844216525,0.3404432325466405,0.3191308443502217,0.3044260526445818,0.313649498526127,0.3281072455767744,0.32835394015693026,0.32240985075524714,0.32266449698410604,0.32096118717665223,0.3102118855737709,0.30861270899065063,0.3213072387706754,0.31440241000735103,0.3238364518073261,0.30543764690660635,0.32980137176780583,0.303332865952365,0.31221033540406135,0.3271292730390553,0.30763535604608133,0.2976376773508612,0.33245289655982646,0.3078682257829882,0.30170462817341226,0.32086532561409525,0.3299788344896326,0.30598759618881255,0.33631029059477957,0.2939136438493159,0.3104663143754403,0.315278855313376,0.3070658789798713,0.3000958525626798,0.311085825443084,0.3194488320840121,0.32271047398509883,0.30718800517107103,0.35977676564452,0.31209912692448005,0.37377790909136255,0.309208226696631,0.3054141399778808,0.30394459690155295,0.3178505161942925,0.3227037741608815,0.31203799982067915,0.30761141859739743,0.3158716210135083,0.33094607659900593,0.323160887260298,0.33678937501352946,0.30165343128048955,0.30269485497512916,0.3152361720643607,0.3043593274899353,0.3047887303897708,0.35407226829335164,0.34560410477134246,0.32617147406689495,0.31708250556142964,0.3555659908860953,0.2986255800478004,0.32786678072027164,0.31170271201565747,0.31633840557257126,0.3192343298721948,0.3338878575491651,0.29885629021606847,0.3206357484058757,0.3234738309882198,0.3282261583530608,0.32644131818286437,0.3173600542743905,0.32096317262900464,0.3078755975407623,0.30703013533552964,0.3308909362218776,0.31829171023072333,0.2954164274279704,0.3266115558305985,0.329551910834987,0.32316702545072645,0.30895619516366685,0.31240885031099286,0.31569343813330214,0.36123329592219094,0.30275950892893794,0.31598402378972945,0.33412694367123746,0.30464545258696973,0.3361515812848831,0.3444370982328776,0.31698020358778733,0.29935824854366333,0.339703197682047,0.3151960642141372,0.2983774440285147,0.3185109548992069,0.31514127539700765,0.30653961066953744,0.3033790512393575,0.34486239211731984,0.323321525107572,0.365462088606108,0.3044970793134335,0.31070709938023394,0.3129946233007187,0.3107415210121507,0.3294917786834865,0.3327341152407215,0.33292674338103323,0.32609418955537894,0.3076269400040533,0.314919356605466,0.3084143165234661,0.33136869763170446,0.32092223988176893,0.30047622144482256,0.3101877721230788,0.31111669769993855,0.2984783508632253,0.3211127104758106,0.29662432375051495,0.31408808989144854,0.30296385341324045,0.3013129450338877,0.33867168356943805,0.30634292600334484,0.3073218156842466,0.29608588633759075,0.3537998493308741,0.3248130166944077,0.29947255400547007,0.39349533108208545,0.33819781207317884,0.3276266950011023,0.3153580846488183,0.3182514643596972,0.3239278504113267,0.31931335695285845,0.30545896175156834,0.3655888861409056,0.3073791502573307,0.337622813445419,0.3105820745381026,0.3255631773825409,0.3376925720539883,0.3263756480466798,0.30619721279426504,0.3599307668093463,0.31091463711602396,0.30244682176965465,0.3313082847747195,0.30852596141191546,0.3189584217041438,0.3591560948323419,0.2990866395313773,0.29755913789196337,0.3103598458777903,0.3123847065314543,0.32793977973652855,0.31097910830417014,0.32723510055100713,0.35360307354704,0.3127272181714776,0.32133182965673557,0.3073132086409035,0.32054901057432106,0.3371569998657386,0.3216481866336858,0.3057237184813287,0.3113040663151725,0.3157347256821923,0.32439704021840854,0.31672761491604356,0.30892506948430765,0.3218688009378913,0.310150832222467,0.3138383296113194,0.32540836168981524,0.31257647089125784,0.3306985830003534,0.32368372171050785,0.33766890955779083,0.3217113063462832,0.3019920668637837,0.3336768535365056,0.3018761226030123,0.32612104287005805,0.31948428995902767,0.32643436233860795,0.29399187619885037,0.3266376038018881,0.33515397706781885,0.3156244662681924,0.29935972474899103,0.3138540447579678,0.30171374805290163,0.3451087508057888,0.3233899728097827,0.3388607553384199,0.29807803643592096,0.3034406161292166,0.3375903139867414,0.3129136968685563,0.3156828310937131,0.3148008774733785,0.3190273405796188,0.29866914927577054,0.3226153549088312,0.31561126816984275,0.3242847555024341,0.337101561129392,0.3186253707478322,0.3098861993550642,0.3114886241033489,0.3059892680545129,0.30435361674056866,0.3337911239239298,0.3362014139699237,0.32294011619616003,0.33442614964607664,0.29320141451094456,0.39796428753968704,0.3258920019326651,0.32143830451930233,0.31032393972041344,0.33000526600130853,0.3124850322650195,0.33864541382486374,0.31698538939368387,0.3127506739971263,0.3132500421440566,0.32486268640923804,0.3034000979021087,0.34119809842180004,0.31890591160514925,0.381440038897235,0.30027406054309813,0.31377247795720026,0.33657333669659745,0.2958984352376343,0.32014858742966584,0.31830950925151436,0.3132580415272964,0.30313528206512774,0.3079313740247601,0.3041793478442336,0.3156369935836424,0.33704483888602543,0.3205232318877259,0.31578700545358007,0.32621897015921725,0.3200952521029124,0.3559911696797383,0.3347386183617584,0.32561051699870364,0.30445475393062854,0.3056397590627314,0.33800055162680753,0.32524126220290234,0.33835929452930424,0.31080722480078354,0.3261620216623763,0.29705175569495734,0.3332140229764523,0.3076956538774467,0.32530151677229396,0.33285022864230007,0.3225482152256377,0.3179247415678339,0.32604941471747023,0.33177620154725795,0.315922537658338,0.2932856567369917,0.3099272212159034,0.32044660172412454,0.30992427852880133,0.31468085684890534,0.3126644252569043,0.3039178525507666,0.344438853041382,0.30268514037584815,0.32959855828494317,0.3077801520047018,0.32722319527920074,0.2971309831764987,0.3306860665914198,0.32580041549394967,0.3123209170421394,0.2939685004744902,0.36724118772666187,0.35670283653449597
4,0.31714801543295984,0.3061416939444884,0.3256494284281657,0.29533276057626057,0.310568266233564,0.3173673668571924,0.34745969151855577,0.2992036208803213,0.3306306118227854,0.306728718901912,0.3155019021581948,0.30903716637487855,0.30591300398093757,0.3060167705099272,0.38655076761342244,0.30715634078397847,0.3280951808231764,0.30687849711801085,0.3183859007935409,0.3190677806444751,0.31008010225781824,0.3023276549027797,0.3187192075718815,0.3065520938308368,0.3221375667778451,0.30883868486431615,0.3285274018197337,0.3077251920160477,0.3155268543481968,0.30614868691283853,0.3126967546553298,0.3200589396781287,0.3213256633344934,0.3286027937491933,0.3409246206014679,0.30850288570844214,0.3316058363615605,0.30693711190104933,0.2980510389822564,0.34850478290607934,0.31907645821299,0.3035472249444441,0.3172010384405078,0.3444811942379963,0.31112871875447207,0.3076816964413699,0.346076427383846,0.364054822281029,0.32898575537286767,0.29930976052842423,0.3857843102494794,0.3317920835445157,0.3454861555932172,0.31220477699142607,0.3397556694499496,0.35871153281986073,0.3212509200519597,0.30585114131353297,0.35050642436030377,0.32304984174680734,0.3101783521185478,0.2915181054438746,0.2999830542016596,0.3168045625225941,0.30218687474753236,0.2932608611760741,0.2986644978496743,0.3009403720616663,0.3176339267407361,0.3193988081452602,0.3079791348374613,0.32721001291307367,0.30443811804786225,0.3378556159070422,0.31632921472420505,0.3365953568499934,0.31091618332184134,0.30668133990665974,0.3188810427923765,0.3389726602508189,0.3226914726274914,0.33155724222306887,0.32674634407514447,0.33313260402094597,0.32256935602361614,0.29681232983033035,0.3307371686777647,0.3158665571911901,0.3413082668182282,0.2963709828096448,0.33632223633977715,0.31948233460256825,0.31211664084214263,0.3295828909379367,0.32400624380472365,0.3513368990278255,0.34718421383532083,0.32004028484503777,0.30107674950882396,0.3310853003486883,0.31289948647764937,0.32136290372701154,0.33952914333275963,0.30828420819850455,0.3092863094055181,0.3046635507612971,0.30307211605150164,0.3392933800917265,0.32320271318502775,0.30635152771145846,0.32582896853115406,0.3120595443237887,0.3342005808038476,0.30904920576735007,0.30621582012285015,0.33807871471219686,0.3453429705715562,0.30845003892559086,0.3044289243492019,0.3099778769013902,0.3104577275457676,0.31781732725207557,0.3047301135472734,0.3375261272137632,0.32583394742837574,0.3663553744423323,0.3123755944154614,0.3072897047199636,0.32383344226491223,0.3100248617789367,0.3260509025839604,0.30030949187038425,0.29973648771501105,0.3111309709025456,0.3449261188209002,0.3004217182045336,0.31877356849126437,0.35459319935682987,0.36048993767579185,0.33533650358442896,0.3245592956979117,0.30882761506681633,0.3053328985005569,0.3092299959827438,0.31587306166742446,0.2923829364999144,0.2935756521365448,0.3315075500743488,0.30108060218115373,0.3240189628381579,0.3098727940156466,0.33007727328705017,0.3041593579027623,0.32483825377915265,0.3185064537632847,0.3131968751007089,0.3214934550572251,0.32240750835319104,0.313476437993073,0.3110289401182849,0.3077208048994708,0.3239773713666915,0.30922204627738936,0.33808022146969546,0.3211273531192676,0.3147529099907139,0.31294167133489614,0.31276239719159954,0.3274070291891821,0.30186743954846096,0.3018927304874706,0.3053362178541396,0.33438981306086746,0.31647943958676733,0.2986721488577667,0.29443953621116364,0.31266806522661256,0.30906626682454663,0.31477131579718665,0.34208250294940357,0.3008590158764374,0.34020994642974994,0.3414176310810903,0.3168510053428387,0.3476651179863254,0.3485456535063884,0.3149437996482932,0.30829963120606274,0.3233061994310251,0.2968956163436077,0.33087244700517354,0.3209973354885358,0.30025375126217446,0.35146974992417684,0.3027239545691236,0.3295365045293966,0.3190323240416226,0.32140482965560035,0.2983604361401176,0.3057309847404964,0.3054206809916792,0.30318733883436844,0.3320466249965721,0.3183294506823651,0.39062016692402685,0.31210243625689466,0.3239586065073426,0.32410581131560356,0.3165699892657422,0.33114833762200535,0.3114749610358583,0.3043571723456057,0.3377872543555969,0.30519876203693475,0.3269539256808357,0.3247484394128971,0.31733132392189833,0.3254043933507614,0.30912673514540645,0.34835170598423515,0.3136586137339338,0.30995927239622506,0.3508977950303849,0.3038461638015786,0.2967730517415262,0.31258681546029504,0.3115937753020591,0.2985900312538016,0.3080034502502797,0.3324975296518116,0.2991305131192011,0.3016681138156526,0.3072434363766269,0.345387229817646,0.3246813090652211,0.3208623124631746,0.3186712726605213,0.32349597980160694,0.3185098934748111,0.32332996433857436,0.3064189229351547,0.3255405771812385,0.28966602757543625,0.3247673437032652,0.30807644243397153,0.32006201810271145,0.32562668568757125,0.3026808564809677,0.3075878188004488,0.3159634037371806,0.33975889418458505,0.3181853076571823,0.3532801770069548,0.3104380351926941,0.3042353236053568,0.32022032665924083,0.33509960113975146,0.3140981454695745,0.3102223392792379,0.32127801153434027,0.30691232397177637,0.3029977403661748,0.35231311118759095,0.31883229324668744,0.30926901561551123,0.376855865503791,0.31463901567060903,0.32020221338396415,0.36200291530490997,0.33568548191127073,0.2994514625608845,0.2933015648297769,0.32524634787106377,0.3244612927565256,0.29399770131156694,0.30311770974030716,0.3113259757060348,0.33027932013808775,0.335222644905055,0.3350627911916689,0.30691424137484363,0.3179831748040786,0.29697108373412967,0.30073988757523523,0.3014811882194507,0.32457746167301216,0.32418939648243605,0.3101425771724696,0.2923277197222008,0.31217008960131887,0.3020408309706317,0.29961099075453224,0.32300336872806307,0.3177091178814713,0.31959162277114517,0.3117801958883941,0.3294093469320016,0.3142013296201847,0.33549911181201125,0.3248017467905911,0.3139499794231052,0.34281124209900204,0.3251863733294007,0.31805934766902516,0.322683601608238,0.30219855168308674,0.29809643247072437,0.31977477229800905,0.3895846115625846,0.29960142174067367,0.31910926232237197,0.3434937036435311,0.3413686677615707,0.2988033190684598,0.3087640209045376,0.32934573760412905,0.3294192013470003,0.36875172166385084,0.3400093011061209,0.307834061501696,0.30980373736425193,0.32317317476895085,0.33056903298300483,0.3480130827627091,0.3343259105964638,0.34135393736171743,0.31492234656150375,0.2930566340750066,0.32646678919611866,0.33194491003679955,0.3191421596984557,0.3391860849078566,0.32776583157844824,0.3317786222301914,0.30093570916104234,0.34231593252439696,0.30971575256408695,0.32054091669835916,0.32579755376339736,0.3145655486882869,0.34452412284172373,0.3351013965111963,0.2941876863466163,0.2995958533851475,0.30060638572398074,0.302100323894793,0.30191885066956814,0.3050477184971158,0.3310780319488038,0.2950404745152785,0.3279261790344615,0.3207027492687174,0.3238410218086079,0.3261299413442848,0.310290510907853,0.33770743851491986,0.32381472615931706,0.3140234211472352,0.2953515407823519,0.32358203869437113,0.33068877088722176,0.30487964669219136,0.33536785129282987,0.3033856102826645,0.32357582221748976,0.30438800158268103,0.32830154288667707,0.3118518316526663,0.3078263622730453,0.33212936025794354,0.33638574890329664,0.2969378554442842,0.34091172992206753,0.3164352967843931,0.3079094308780601,0.31808865279272636,0.3414307091842316,0.3168608571216602,0.329587191652055,0.31266307313684477,0.3041644168102655,0.3233567224395276,0.3165859400701745,0.3180181514406121,0.3059187091908815,0.30778383370893814,0.33072775895553586,0.3246245860920414,0.31704662024588415,0.320647927749891,0.3327000491300114,0.3593374893315483,0.311927795044229,0.33129859175233967,0.3225771898379294,0.3126063734714064,0.32483127157879316,0.3115535074565565,0.3088873780598326,0.31404003078200543,0.3304609049524915,0.30783418230972887,0.3217357194329543,0.3468184644762571,0.319286076938352,0.3365701531549678,0.3499949535265373,0.3338562917872595,0.32688597706458833,0.3034044836446025,0.3757030490693874,0.35383378871787124,0.31859677513961593,0.32769818121704375,0.33153185731640616,0.30847176947270677,0.31308703349716976,0.31082225071146086,0.35389568507335345,0.329880214187197,0.3226549873513428,0.31533315463491673,0.33049338778483156,0.3109916281940542,0.3155843355288728,0.3129940597936799,0.3335216222274429,0.30530014879199047,0.3173036017919255,0.33030289682135927,0.3314165548611919,0.32668099903338,0.33481712224408533,0.31846191779720856,0.32831119062666225,0.3518036812605814,0.35574305159128733,0.2959601677267138,0.29643283862654507,0.3079313599202437,0.3279701577967241,0.3059661918141257,0.31130021055980933,0.32813580236903706,0.3491736399461214,0.32435583303761806,0.3146198233377075,0.3255159873431965,0.31496910107119386,0.33277727247359673,0.33663831964911867,0.3050358520376516,0.3322399222629202,0.31596294173227324,0.345951721206312,0.33759018208751657,0.3573428366676189,0.3804947333406661,0.31000112931018603,0.3368564782368511,0.30073469745776354,0.33595754317383636,0.33267082316618024,0.3295970479899738,0.2931362721873084,0.3244614939241624,0.3499689740426459,0.3305725127296723,0.31661767254801004,0.34181298670012605,0.2955132565181081,0.31773977866874203,0.36672941665165093,0.3288327605257392,0.3348620936741497,0.34574861203902885,0.2953763231801046,0.3008109352345008,0.29632483377994884,0.3058198019570036,0.32270216241070393,0.32581702452147066,0.3268524109663459,0.2983005080868815,0.29602951283533907,0.31421371420509986,0.3133301192546492,0.32616184315969166,0.32805414151726253,0.3296418078191309,0.3263277175964227,0.3288109849419072,0.32031529823053667,0.29780154336838216,0.345151576358439,0.32815376572872335,0.32625131188782175,0.2983973981746152,0.31763846241226695,0.3605513934585404
5,0.2918782942993088,0.3072262249919913,0.3163535966948914,0.29642616278041384,0.3291842834314522,0.3294747249283817,0.33080404866927815,0.3115294561768403,0.3408705269894435,0.3113141286649853,0.318473602618231,0.31492725860484505,0.2931815136326228,0.32426928266381116,0.30478211309810155,0.3202835925417661,0.3321498878560757,0.3244731490107466,0.3103436025704479,0.3226870617714941,0.3220320774715476,0.3119078264549338,0.3107925779358053,0.31501398125977415,0.327745303091105,0.32405629321542934,0.31501950139914936,0.3090623535362404,0.3076969072459851,0.3067347433373112,0.3391267329915427,0.360525644527396,0.31132402263936987,0.3090465256992226,0.3525547955360802,0.3184887271819243,0.3148373430004037,0.32996269611334944,0.30572477131347486,0.36493159910451817,0.316581286047656,0.3121424063176605,0.32342418777475823,0.3425783152415069,0.3221055240246403,0.3259641199867784,0.31975222182727264,0.32830276486690163,0.31976695639645925,0.30875939451674284,0.3838791893401548,0.30703079186019994,0.33418165152176876,0.3292754326405108,0.3161920700414563,0.37377840488740216,0.31742364155744585,0.29880839882261206,0.35901100227605287,0.30412357238174464,0.312258592915639,0.30334863358200925,0.3391246161220686,0.34375950169820524,0.30750435078860183,0.3221863415768907,0.3042994867162573,0.3120654829790585,0.3317371624167774,0.3015182237268494,0.3181021828252119,0.32132633663239085,0.32346736124751896,0.3396462931873354,0.30025097081815233,0.3217064316968993,0.3009521682368295,0.30179001374153247,0.31495659087627936,0.3217102998254462,0.31944103996157763,0.3266534432959143,0.32911956385446506,0.3257153743164512,0.32081917095483525,0.3053027175378736,0.2948086940878911,0.3045691445060933,0.31430867850065936,0.3220204887234689,0.31051433520929983,0.3297013896301325,0.2950999992078698,0.35742455219840624,0.32494684511662175,0.34618856417112964,0.34687166568199623,0.29744886358396516,0.2950945380301897,0.33741525144302875,0.3184296221054312,0.35571294550209226,0.3051931247201588,0.32431346023590685,0.30952287556469393,0.3117074365553279,0.3036444802341946,0.3149068449906024,0.3665274625262177,0.3230115035256479,0.31829700075439554,0.3346097818588547,0.31144304613595347,0.30059134560568856,0.2987965552316137,0.3160830585543705,0.32731405067236413,0.3548690784845573,0.3084111839969661,0.310017694850843,0.3086045422356687,0.2935709053598469,0.31507834223159736,0.3512469594761274,0.35181302893620603,0.324422270579131,0.32766308722228865,0.3180055177945299,0.30974457117245857,0.319180338012675,0.30622397212659025,0.31559962723526014,0.3306415503301965,0.29917900211289633,0.3023133352157854,0.2997156615707685,0.30792294103875784,0.31289747927615774,0.32923584154087276,0.33291835803233455,0.30662125121000394,0.3453409055828666,0.3009470150437262,0.3188113161368102,0.30574635599032607,0.3066119034640528,0.30848523386006926,0.2981920527759529,0.3121335154032575,0.3138021904077936,0.32216874355191594,0.37076183331671625,0.3247403843342157,0.3263976021698418,0.3000636269769288,0.3196672489422788,0.31253304925588077,0.3148702108511424,0.3159000320937075,0.328031452191477,0.32009020597969184,0.3092000105340392,0.3092616222007586,0.33915233828087366,0.30602484059059043,0.3160488410087763,0.3107793623304554,0.31353413262224067,0.3200224606170573,0.3026118076921054,0.319318086214006,0.2960552853485997,0.32627176801361923,0.3035554149255714,0.3050853546801411,0.30513764392472753,0.3244359596666895,0.30606133479276515,0.30829486765009395,0.33153912560900195,0.30551556030120597,0.306555035170953,0.30303768620868393,0.30275153943344624,0.37340739739854406,0.3093027998399193,0.3095488478277602,0.3288970996242479,0.3132499665659184,0.3071130414863767,0.31325141511629306,0.3008225943174679,0.3240075937477837,0.31483737252136207,0.299949971722952,0.31296590339107644,0.32094408073770714,0.30879199435116916,0.32034246207836975,0.29854074862027447,0.28920000988591454,0.2888520607361353,0.3036761175470096,0.31571275928894954,0.33925685920093984,0.3230234495449945,0.3066201383094772,0.31892713477337964,0.30164054701873627,0.3255466779524801,0.327447048791404,0.3138720871499983,0.31685430865965725,0.3061827779968568,0.3308658202737441,0.30935878828965035,0.29892059772321306,0.3254905767425479,0.3151156357982407,0.3071112576102624,0.31266863738497686,0.3197991452218344,0.38627697472211775,0.3111038033559835,0.3078976488762894,0.2988468466076865,0.311855026654714,0.31697884595060144,0.2933100483782752,0.32614742399119917,0.32323541550123663,0.3014175517451223,0.30567100244111717,0.3439936660498532,0.30153957910422297,0.3450045822235947,0.29551587660431544,0.3114894377106024,0.3193728151309708,0.30110117249362484,0.31009270002749006,0.3236657147077852,0.3038304036441816,0.30548377762686896,0.29830342444340074,0.3474167301862439,0.3314066671948014,0.32131668085642956,0.31012377746293257,0.3376074094321241,0.34027728735610735,0.2964111522827223,0.3172448663165776,0.3030674050167394,0.294190049786492,0.33345170728807355,0.336539535349653,0.3285301824931575,0.2880901291090925,0.31900548221462893,0.33133650083253435,0.3070282174313469,0.3254755701738522,0.32056111473762916,0.3321922265483254,0.3344467531541958,0.33514892880306485,0.314106482050743,0.32047327671406406,0.320515505511288,0.30437376874533373,0.30714882438517976,0.30080018901462147,0.304598476093199,0.30895709561794404,0.2993274242646313,0.3361577054590655,0.3335936201904181,0.34474609640864073,0.3155323497996686,0.3063260144503309,0.3209981703113959,0.3014634133920869,0.3105258722137873,0.2978237593385597,0.30939067982886514,0.3149540208889146,0.32853509683226373,0.3131062202396329,0.30701660400561886,0.3224990816040437,0.31622246349252503,0.30954936529226895,0.3255741383429397,0.3281655507166734,0.3205257061670418,0.30476781949510456,0.3315255486528826,0.3631187128051675,0.30044796396230067,0.30498334223168644,0.34192460479567865,0.3135638394425678,0.3224738814406138,0.3144352820400945,0.3212480513508846,0.3072968490498592,0.33967814975740385,0.3521323705154923,0.2910602319873245,0.3275459452095738,0.3204263994717328,0.3400558214700872,0.33832900213939904,0.32348182633568595,0.31257787313997343,0.32486266973023065,0.32745730884338303,0.3076962279389315,0.29540256411447136,0.3066588135867494,0.3206552858379281,0.30160175676016365,0.3279604284761127,0.33417341896496683,0.3310403538642996,0.32627334915651685,0.29910943373049037,0.3206677778037077,0.33500689757200364,0.30349217963295805,0.30811627750382364,0.3227643610679925,0.3700231748241005,0.3132554818065113,0.31700095445272913,0.30288649790958516,0.3123862516739441,0.3291123098958725,0.3193096079023532,0.3230122889152736,0.35129868374876727,0.30396551308887043,0.30254122867741556,0.30587186643660835,0.3170132343386277,0.3215396044934878,0.31005509623152505,0.36422587045873256,0.3137514972567353,0.34728052970075207,0.3167172705286861,0.33148600612928864,0.32549520246602265,0.3219061523238436,0.3746650859937773,0.31772772784641373,0.31892161388915946,0.31416609714527954,0.33578413988247985,0.3452960591051929,0.3083733489005964,0.3817873548299526,0.30145771797827714,0.3034437072186013,0.3083434350783767,0.3165215543207548,0.30309178602488773,0.30643069067222595,0.34182731962017193,0.3223162459567154,0.32650980014455316,0.3218594163908598,0.29910792795827096,0.3270141372825029,0.32192049146221047,0.3070731383737247,0.31032425497980903,0.3100584886094911,0.34437895833699106,0.2941087012747764,0.3034635075283695,0.34587106835483233,0.3180591143857826,0.3074275570539297,0.3115030788080289,0.3159753387257843,0.31208613961651366,0.3370743046204363,0.32778301485824873,0.318975356843613,0.33030007512327864,0.29743294929576275,0.30560947032577956,0.335562530256216,0.33922298108158183,0.313837139768698,0.31209436486461967,0.30197133152326827,0.33822616184559534,0.3131375355742781,0.31378493560233867,0.3042634242142908,0.30977959076037265,0.3092691732829637,0.3189708588228758,0.32691970224101946,0.35658632170055193,0.33008426180965256,0.32559717243409525,0.3236968070437629,0.3394983834425428,0.3047962151509269,0.31264662461778875,0.31733246407022186,0.31121362865263175,0.31400546296729326,0.3009004433273244,0.31205521863301583,0.31792570981960017,0.3042388601656032,0.3014110370964042,0.3081587405711733,0.3183827266716806,0.3057987384362919,0.32174658550769347,0.3691266635737139,0.3027548051719329,0.3356822632115504,0.347992588660467,0.3374759652047025,0.320309434975539,0.334125281178523,0.3029642582964756,0.3157021069579807,0.3219742082678333,0.3221496953897523,0.29242440493368616,0.32918567034346313,0.3342189772964947,0.33151190898851585,0.31789214323063186,0.2995910402402335,0.32840356435025775,0.34574955457266,0.314886506088554,0.30749669504069904,0.3163432709419892,0.3239413032790111,0.35079839898024306,0.3070507640432939,0.31881569127399845,0.3364872089599668,0.30673436275685406,0.32510148730001137,0.3213111880827761,0.336749262190712,0.3449029264133352,0.31230177567573336,0.34062693356974577,0.3037674247376353,0.33190442642942564,0.3245101577220593,0.3213757932163025,0.2882418084415436,0.31287406485439695,0.34762258712946564,0.3313939407123402,0.36295622595872273,0.3315636373788938,0.3130357294031151,0.31583966515609563,0.39691351096524097,0.30088557896167817,0.313716898103593,0.3253560619312875,0.3137171530194715,0.31906191739100265,0.2968725396692132,0.30848430006818595,0.30442002398567686,0.31815928973074115,0.3190278562554377,0.2974538319226815,0.29034917242594527,0.3308474761376547,0.3153782899599159,0.3095752330326278,0.3235199083309472,0.30653910002301293,0.3761304348771004,0.3040077989895143,0.320836444088462,0.2975904392105905,0.34046480591037553,0.29484423803129417,0.36095844138772837,0.3209704119409221,0.3238856053755122,0.3186260591688733
6,0.31782185739854624,0.30631295441416645,0.32632567190604467,0.33938197636205697,0.298593944580142,0.32190832201932784,0.3047738138219517,0.3127785551530638,0.3316532818831954,0.30147563787621784,0.3235800657446165,0.3171627031256259,0.3082778452907517,0.30046522733266157,0.31547704573229257,0.3291644370490051,0.33891084043896996,0.31753213815420805,0.3221778326660943,0.2949682156520277,0.30827736475624967,0.3101642838772346,0.3203071063083524,0.3193866731571177,0.33033489703670066,0.363073406273758,0.2910812174822651,0.30503950346270803,0.31628034323986143,0.3005766629477523,0.33254241425354325,0.31454648530467716,0.3104313815947821,0.30764626482729407,0.3189854690720321,0.33787453437507214,0.3431328226082512,0.33277804257307547,0.31257793589287375,0.32034758265139984,0.303221029634663,0.3225655627750351,0.33645333897996194,0.33034544831377055,0.3279305631179351,0.30593064403799497,0.32455281693825166,0.35028371727583674,0.3183472350762232,0.34280430365570763,0.3153344678262304,0.31246879849549114,0.33459535584539385,0.31216540630413375,0.333170568358069,0.37669162771381265,0.31212256023121654,0.30743242383187475,0.32948949590948273,0.3307236618849444,0.30529990003406077,0.30991688304040343,0.31917991295199827,0.33584144145294975,0.3073464145416416,0.3183695278051169,0.31902652838336565,0.31558579641539675,0.3090603095203483,0.31669774931529937,0.3088521251789923,0.3380667392920347,0.3096530462945011,0.31946878177105226,0.29860372862332113,0.30876535321038545,0.2999350946513478,0.3152962857585712,0.31332524926954375,0.3064951487994568,0.29190045074852083,0.3105289525004232,0.30732632548812355,0.3645456591581112,0.3016753912038174,0.3193458028172548,0.29934924337924346,0.3189420571659353,0.3479157669071593,0.3188098966979604,0.30213588897846094,0.31907301997720316,0.2959217678157744,0.3735517704967647,0.3163700336491196,0.3553389741942024,0.31170888159215,0.3023653698280317,0.3218495350250984,0.34267290494062613,0.30838039358435954,0.3480347409801853,0.3309343823733738,0.3150855333262213,0.30380560351404706,0.3263136290800831,0.3469143336195771,0.340019909731304,0.32168704522447444,0.3158623192193917,0.3054755229982443,0.3176031419474111,0.3135827935533025,0.29983628240084603,0.3212005550545778,0.32371195758428645,0.33993063077718577,0.3343889122121244,0.32889211676805064,0.29912423454172915,0.29342191874289375,0.31619062117081004,0.32916381501268227,0.3308864004429752,0.37023690581315655,0.33891166812514695,0.31889217711441076,0.3127919455342086,0.3042902950398458,0.3150303265431643,0.3125567823459289,0.30447284209469727,0.3009186854133458,0.3434889656852426,0.32243729788196906,0.33789260818153444,0.3155537063558852,0.33446952613229086,0.32790204483996244,0.3333784678365922,0.3011508385100661,0.34249810844570167,0.30486469037711544,0.30802874053164336,0.3268903257253606,0.3020019527018334,0.29717008036994436,0.32396030716930313,0.3047760593243584,0.35149097892079595,0.3080957186252723,0.34224039865784023,0.3467952319558225,0.3060361575299723,0.3025789103750643,0.3198435543463339,0.3329625771250599,0.3245346014847563,0.2941635190150972,0.3158321027438022,0.32380269382098037,0.3066809824088855,0.31217453153073926,0.3285554139091203,0.31554360550396393,0.3204385931372112,0.3158920665951192,0.33193748139811546,0.33134982775519634,0.31696654942405433,0.32583394221038864,0.31024210629849885,0.31884591311585575,0.29994270281473623,0.30932327096167583,0.31608373933412215,0.3137386056261052,0.3203584730996969,0.2892052925687224,0.31483309462408343,0.28948397381953683,0.3128803652320762,0.33472726811193326,0.347193282105554,0.3187988378346128,0.31438832360960534,0.3171318709668888,0.3358210407668013,0.3443867830890523,0.315031690243717,0.30586262504746764,0.30332769112782165,0.30388742788668194,0.3384490629674127,0.29540668680547166,0.3257212531357554,0.3083070201667724,0.32476609560394154,0.30686744735663457,0.30163387776655093,0.31102142815547296,0.3136150743385434,0.30017517285918127,0.3072631951298911,0.3389924814780417,0.33608503466807715,0.3188300847896002,0.300727162651596,0.3058583425868817,0.3432871346078138,0.3156105429513029,0.3255650217066563,0.32490347270722525,0.31301248243536095,0.3107011394927318,0.3472002350055873,0.29931166990119196,0.31633663348885954,0.336156061847798,0.30675200234350636,0.35022325410531574,0.3155566339069591,0.3396062342879647,0.30937926228895046,0.3168745236192292,0.30755004437240957,0.29467910869295283,0.3014059200782171,0.3260684008624124,0.3024228714364989,0.32962334794332016,0.2873594848771124,0.2905107528020575,0.3387149231474298,0.3062536154846393,0.293908307474859,0.3404311664822298,0.324880379930445,0.3127179195729066,0.3133875834289555,0.3016608600275713,0.3435839860786126,0.3084220590704547,0.3153691109003556,0.3151169301631277,0.3469498793239589,0.33697592521177133,0.31243983976052264,0.32160633458539006,0.3177144077539376,0.33450517957893916,0.31202453865180674,0.3032698524300113,0.30638348154582673,0.3202074566051237,0.30332854468602993,0.3264301392580501,0.300195858126486,0.3115904952504672,0.3073367443939911,0.3245108102856734,0.29578041610468814,0.331515896502689,0.39461286023891196,0.3204850851004899,0.3431985183906911,0.3203949616298956,0.33750225990481975,0.3123842331595642,0.3624700690695535,0.3073878177690056,0.34506246500819426,0.3396196834389518,0.31635106234799415,0.3057052880217811,0.33557263457928205,0.3048553351952242,0.32032600291345925,0.34827303313583946,0.3134884063744253,0.30115946617861805,0.31845922203445065,0.3227989743403262,0.3134116212402193,0.29877817660629147,0.29584614902533785,0.31173580081720875,0.32592590473650784,0.289258210847271,0.29564307668005985,0.3182747626176433,0.3413805960763324,0.3315950247079182,0.30777402101104223,0.3098870273809535,0.3279233857561729,0.3218503015365799,0.3556883962562099,0.34462074657714825,0.31504267062632896,0.3292185537653219,0.3407413027182945,0.3065159057927892,0.3103292362461425,0.3197088427880159,0.33665208300243515,0.30240432989298577,0.3226308069939175,0.3773991674889891,0.30976739009031834,0.31611962013321593,0.3407287195091606,0.3566315932358023,0.3166008532885532,0.31291242523988216,0.30323261501611404,0.33137584853895585,0.3363316212030512,0.29363054669017136,0.2898776059721712,0.29817646078438,0.3358279084358207,0.31650992887055956,0.33772514733238174,0.3298474764105275,0.34758864892873226,0.3158006133859018,0.31582590794189863,0.3140865280891939,0.32312874712812023,0.3174685620519198,0.2945253006512839,0.33463373014937975,0.33664752404192144,0.29851260354028786,0.316343810328885,0.30285805669826305,0.30610401023733336,0.3117442173199866,0.31421037389303696,0.3231139424445815,0.31862599345440124,0.31506921590967396,0.30322872703219783,0.324742662932409,0.3006686075664652,0.3005286558221778,0.2966694652669707,0.33563507905261525,0.3110855128181373,0.3194092620030404,0.31214471162406066,0.3214357830795068,0.31498717954975614,0.3136545624396004,0.34775327459235517,0.32737683925582817,0.32053143584342003,0.30314689837030295,0.3177092414552774,0.31046284898102716,0.3135031549529096,0.32072192838914637,0.30789490561942034,0.30048549213350634,0.3227951679479535,0.3107631228167612,0.2975196297565389,0.2926081730750133,0.35260297018858355,0.3542391095964933,0.3070484174427784,0.3311289459840658,0.317568838242565,0.2938818287786801,0.30979151943562344,0.31687749591167547,0.30602124243184325,0.3248319370343071,0.32433800559843173,0.30551552395967346,0.3027444178731922,0.3297828578608065,0.39211046718328235,0.3058570516746961,0.3284247930314853,0.31313813169803,0.3343335581028083,0.31542806536721696,0.315599008230241,0.3226754293830493,0.31437892340009266,0.3031915355024873,0.3202278088046549,0.3456269432912754,0.3214463442254249,0.32695999254174424,0.298956725158052,0.2985872196506443,0.31969171443198585,0.3694495571074493,0.30840910657156634,0.3251783869242257,0.33456940142182506,0.305939466460514,0.3334718168801839,0.34138500047446463,0.3753572757705761,0.34590743659874434,0.3011716146271482,0.3715300597602659,0.3314170910131181,0.3205914886427992,0.32457223889892284,0.3384223766240896,0.3074889835761331,0.3146004863468216,0.32307271866621756,0.33339042265045016,0.3295851862430322,0.32867617879320105,0.3258665746778221,0.32143615285653027,0.2992144058048727,0.31047838245862613,0.32368053980636435,0.33805052656887413,0.31478352646431834,0.3169715052084171,0.3121432084772606,0.3548505943130384,0.30337670760139834,0.3112957537680001,0.30391356813180986,0.31102522298726604,0.3039670272580592,0.33842536089615355,0.3069610743159711,0.29892133338885296,0.33294225259794535,0.37237348232826295,0.3156092812810821,0.3182061158190573,0.30335580141376595,0.3407962455769054,0.3140502963895199,0.3192760691689728,0.3215568203802873,0.33569013456834884,0.35906641675838447,0.33666566065963904,0.316651014455204,0.29364119507293757,0.2925336115547035,0.3240329978405845,0.30039974820633797,0.3082056675655677,0.3335486202246022,0.3323839889782197,0.3430054599587084,0.3205701695622581,0.320856408742415,0.31253259739638595,0.32555690398027654,0.32225169868529147,0.309375841901917,0.34907027782923866,0.3270109324319869,0.31575053034416894,0.309672377496902,0.306059945087325,0.3065075257463821,0.33023344637624585,0.34413037369608723,0.3676235390616271,0.3414970949798775,0.30297984402317113,0.3093935083572398,0.31186363251533356,0.32580962108168754,0.3094405347795015,0.32213377924470643,0.30431940981052474,0.3068429836190787,0.31856076406024925,0.3037629591614374,0.2981173572414378,0.30483531079118653,0.3703287466624896,0.32408079810217794,0.32789108182979126,0.32538869299355555,0.31765223420498867,0.2986867049960745,0.3748002547453595,0.31285429629016703,0.3490041241021419,0.32117183535294586,0.3156858462437735,0.29854892187887233
7,0.32548908040240915,0.30380649872933446,0.324762421185543,0.3150268305845998,0.3053318008216726,0.3309387391187457,0.3603534749197649,0.30659226532803824,0.3378798346151561,0.31410139975357676,0.32283180451645954,0.30426697119251367,0.36784665898602664,0.3005175035131172,0.35382955828950985,0.34315277988788007,0.3168017502916139,0.33307795808968604,0.3389244075765734,0.2936563568057734,0.29839361275479553,0.3079574962978499,0.29521732151490354,0.32217069566779744,0.31507832499923694,0.33472288445147125,0.28982913485443884,0.31341504151389943,0.33407229283913364,0.3014428936005579,0.3225843759099285,0.3341284649234243,0.32953057094477817,0.31279262919503753,0.3165866750038557,0.3089992835889308,0.35873499429957656,0.3312683256413546,0.3041545457950408,0.381983749558779,0.29913405627883904,0.34084169994681635,0.3456817994537277,0.35210418618563155,0.34444323552766615,0.3081028942149694,0.3426734545917811,0.4133994930011503,0.31664521404077395,0.3212238793481534,0.36517089238080325,0.3079111974754116,0.3302869286418026,0.32271403164297335,0.32326776801871304,0.31512641475325526,0.349867604575147,0.31692016267791073,0.33316754196376136,0.3337265222209477,0.3182145744356112,0.30698531244770566,0.30320117287004505,0.3269767677782341,0.30576139324923074,0.32406108315090876,0.3228426046234159,0.29444719281471177,0.3176622541912083,0.3232245467186915,0.3058502516325532,0.33544546990687085,0.32638064933200495,0.3405371077355954,0.29481219632399497,0.31891629077823497,0.30235748668734214,0.31531688477643377,0.319966782739929,0.3437303748602598,0.3387960482233822,0.3036576641750074,0.31978668404512994,0.3835964017094288,0.3043217164657273,0.3092741793140704,0.300857662591176,0.29878460090086534,0.3214957916545629,0.30547804229612924,0.30904916247016406,0.340853600409092,0.31242530758199777,0.3338214439424725,0.3203821467611152,0.32961452730690094,0.32977037610440996,0.3122631318350912,0.3017678257394476,0.35607987649057077,0.3101497335605512,0.33305099676770816,0.3323650974699743,0.3087013029851824,0.30192561035957843,0.32433344350977195,0.35638339696566895,0.3284984224912699,0.30375562302543074,0.3259463749401554,0.35868076994947357,0.3151789699860195,0.32114087754605997,0.3321047726200303,0.3032642235013128,0.3284515318629934,0.34354875222809483,0.3471816379900733,0.34288227249819486,0.3128006467651137,0.29351575753529624,0.3090296532717915,0.34405704555955685,0.3103675190665466,0.35557230237340287,0.3483968585909657,0.3318130697542197,0.31212129503981895,0.31672566725639933,0.31289571244009906,0.31044339825429856,0.3189721422766659,0.32210077141369975,0.31173366075112796,0.3097995105124366,0.31111009097928477,0.32358062779359004,0.3441055867264783,0.3583876090051482,0.31911624106740133,0.2970346595764922,0.34654976280296274,0.3080113974967602,0.31875174148757873,0.31567341280072886,0.32070723833383447,0.32510095856463916,0.3249319480907676,0.3219772893756029,0.3061779273874782,0.2940516380546394,0.33333823253657757,0.31669248370518577,0.3227268779407272,0.31153035984738553,0.3492083029945733,0.3082625290760589,0.3314397522241309,0.3031244553273239,0.30029356304209276,0.3016168733028993,0.3020968241596148,0.3160287171432473,0.33830584363900357,0.3155678808860323,0.31813647431376724,0.30454069392609534,0.32430526256907,0.34156840024607454,0.3439654606861457,0.317153528424077,0.3052660081544194,0.3373699450039822,0.31104061521621607,0.31194034283917904,0.2970340138557671,0.31345312624010135,0.3370231433405802,0.30476570963121374,0.30457394844717134,0.29541713398429237,0.3400933335799359,0.3071225296066306,0.30786318007510555,0.30979170348093876,0.3103696303358877,0.3830420839359191,0.31339684948793833,0.3045692668302077,0.29895834543859223,0.3058362368145968,0.2982978275276436,0.30579629160048616,0.31853061709176145,0.32748629208296215,0.32421009825185165,0.328712209615541,0.3441822138108843,0.32273582338803697,0.3092693881531587,0.31445635468595945,0.30476219007378313,0.32872784629224466,0.30258304066541636,0.30927107861699504,0.31865407084457675,0.31231244361009164,0.31014917166454053,0.3202887265555719,0.29987363483549395,0.3048766246524118,0.30883833660665,0.31651998641659224,0.3353670187273685,0.3303235034366569,0.31137622630226724,0.2977900081546757,0.30869175065538157,0.3212916053150793,0.31567607617911186,0.33521318450197973,0.3025491482013141,0.3297581784022697,0.2934797183841471,0.3232562079462252,0.30799875596779225,0.29797829480681837,0.2926656713985278,0.29879789681185354,0.33499475781147836,0.3182368381124144,0.29735430650048345,0.3278205602951397,0.32647019682443024,0.31382491147540525,0.321049204668841,0.3474503618980889,0.31170628897336267,0.3311290989320412,0.30908902288855006,0.3006851670320692,0.3091400039436284,0.3074585478121081,0.31474057650714965,0.3206608722949228,0.29765132046884535,0.32504634808909755,0.3303859885969559,0.3190802132478995,0.33378651853748054,0.31097701709722003,0.31061479567992284,0.32606420702857436,0.31540103324013324,0.33090999151155714,0.2997167130515922,0.31636108170118926,0.30763736012911463,0.3127278876239661,0.3156202282220256,0.31883314320003475,0.2980155933623555,0.32276819676371893,0.3079475952932074,0.32146551758650577,0.3292050888324645,0.3205628694664197,0.3217193000115183,0.3261887221405,0.388214140208916,0.31224187777530626,0.31888515585556776,0.3267007632640916,0.31211344201593283,0.30574319075274414,0.3067830542568911,0.3029453888845871,0.3264874527184897,0.320384213023832,0.31324268828271096,0.29909394730082134,0.31817563854838926,0.2956226202405726,0.28956328879250837,0.312616145602943,0.32192361423493615,0.32391267003159097,0.30394912364326354,0.3019021973077252,0.30208727445957295,0.31425306205963943,0.3358982921282598,0.3734162429535711,0.3037562196953428,0.351165228081758,0.33830875833813606,0.3057478485879327,0.3320496527925287,0.3168182136608825,0.30839856898228357,0.29672228860712496,0.32972722707447083,0.3096390524914334,0.3101111979906919,0.317654818707768,0.3103727174755589,0.3032254161668972,0.3029369095521332,0.38121572827234007,0.2901320358264209,0.325672301786745,0.3260861354934549,0.35481215119977044,0.31424510620700563,0.3033967123243415,0.3226700197602951,0.3313598185536551,0.3516482634319327,0.30296555796257435,0.2937470388343984,0.323335933369763,0.3271897067325328,0.3136876700963231,0.3240473216817879,0.3480555571899496,0.3421826147342073,0.33030043034247497,0.31304708809378307,0.3281221105299695,0.32990709881960206,0.3083734865856706,0.327607896969791,0.33393907845864235,0.3115537516440362,0.3121259116890993,0.30296796881376004,0.3086749108817729,0.2940310067833074,0.3254298014444448,0.3120800208369801,0.34485674350955653,0.3295498292596647,0.2969084140419572,0.31521023384489627,0.3255709726864847,0.30563763537876865,0.30492484747346266,0.30103987922254555,0.35562295629959817,0.2928901970503441,0.3266504489989473,0.3121555712795838,0.3042080380537942,0.3142796036966458,0.33019912932034373,0.32664417509098326,0.31522803231171814,0.3168851406760822,0.3069878138195189,0.314572926710197,0.32972614192157845,0.2980507090927936,0.30889708468050037,0.31749125271107237,0.3043385676159687,0.31424260903540807,0.3059439023122167,0.30855466669272297,0.3028525949790263,0.33735003873406516,0.36629486412070245,0.30355196612691565,0.32735976620699436,0.32518010787654295,0.3073501682870553,0.3208205233866466,0.30167517458824405,0.30808485014323456,0.3020324314741782,0.33518504088613466,0.29364301093715744,0.3088733134440119,0.3100590360812993,0.34328171952765574,0.30037717006483555,0.30580748022962934,0.3390585929545076,0.29426310689115776,0.31822334766254523,0.32339655180720805,0.3171294420422745,0.3105720240812793,0.30880320645615245,0.3300436706209382,0.355796543106871,0.32816326142993507,0.30326499842086135,0.31460467907822914,0.30079114997225775,0.31939723351399635,0.30412920609096855,0.3432610253390852,0.32168430133512754,0.3277266528292813,0.32330588108864033,0.30232369876041987,0.31568559717211053,0.3535336924872442,0.3021203753198998,0.3399685544208359,0.3131842742950456,0.35765036089200036,0.3262205971042428,0.31050925816026925,0.32248629685761176,0.30789369708689623,0.3216069518028838,0.3107386905763051,0.30765536327250204,0.31061002652149944,0.3105243564774336,0.30640313032155725,0.31685977198199744,0.33101753680824986,0.3015159853976816,0.3102293516204503,0.32884289163929215,0.2989847295895206,0.32121465287133705,0.3281554851318189,0.3485896643748783,0.31190302287204424,0.2962575077991661,0.3029043852402271,0.3182401653086836,0.31999848567149236,0.309455546163555,0.2969763565373801,0.3297021432047583,0.30822307151236394,0.3267254324172898,0.31445006641532924,0.3512910637256636,0.3163125150601325,0.363559090147618,0.31909124740370676,0.3173573780034703,0.31597507136295994,0.3310052577551644,0.31454825311586987,0.31613703140706795,0.3068404358630044,0.3182533240890568,0.30176261922896763,0.3455875435126432,0.306628574126408,0.3087542416592848,0.3152747467067597,0.3202267484326195,0.35344240651572867,0.3131375268628414,0.3217423161547454,0.33680845356522543,0.32477589842926397,0.2997924971005451,0.32003790552233946,0.334378610576289,0.33322830744161214,0.31643867500798983,0.31815534767618653,0.3034282423185237,0.29791738955792285,0.3623619686676335,0.3189200169165848,0.30977852878262496,0.3155969616979409,0.30977875770694074,0.3362117814353348,0.31793640509264554,0.32290199150830873,0.30910723974761156,0.32521648100188816,0.31376172693463344,0.31235646654000226,0.29997359365631326,0.31149466434602596,0.3039343552100942,0.3425094668515353,0.341525119945336,0.34278708537678293,0.37299426376642536,0.31311042156450336,0.30820761770321226,0.2968555901494704,0.3390193811114961,0.32716628045135177,0.31458751529909434,0.2977389583934397,0.3324983752808623,0.3079527079117793
8,0.3281464260049698,0.3082072416379706,0.3291583430517252,0.3087600962625686,0.31311185262067515,0.3658698807220796,0.3279934572641266,0.313537666547358,0.32789057007817807,0.3047035937279299,0.29983310096150617,0.3180381242573269,0.35240596847855765,0.3020385370262662,0.32772005751502875,0.29929988649628075,0.3084263001724933,0.3044323726487963,0.30712556637385763,0.3398656459050913,0.31656666547600365,0.3247239373990706,0.3001202644422595,0.3194085229834086,0.31497961774658273,0.32223560467622575,0.303291158016382,0.3143866579195599,0.3222337927894627,0.3266020832500276,0.32730248999535516,0.3190812042538749,0.3028558987087383,0.3097666197829622,0.3404769104833444,0.3219640785223935,0.32675188548995393,0.35697145228317273,0.29117748340864846,0.352549187579319,0.30858345373124363,0.32480518863635044,0.32282346063057854,0.37858529577727107,0.365523269536066,0.32302280040590653,0.34992754202815524,0.35510796942411055,0.3088508921025036,0.3223798483256036,0.3706799465170459,0.30818342568892493,0.3730065873061417,0.3392314364783944,0.31899867756389727,0.4103764723967219,0.30283344125130557,0.3141260807808989,0.327106512834931,0.3655670334595662,0.31424187210748644,0.32683760364455167,0.3072570801605742,0.3438982743743451,0.2925188605131773,0.306505419423478,0.3117832559199204,0.29369133915627155,0.3200092219735713,0.3231084528512519,0.2975253375250947,0.3193416699760676,0.3450712840445017,0.3562225694697728,0.30322696942620886,0.3141001342837221,0.3016251620851396,0.3126905821346668,0.3102134836551108,0.3225158647377102,0.2985339087131863,0.3020611786131312,0.3422326744337825,0.33362181006616004,0.3111358452840332,0.3290106646213444,0.30113448361064676,0.30040377812485103,0.3587728010400179,0.2998323999788416,0.30592347344226145,0.3093956409691144,0.3084188368456956,0.3261058860216389,0.3249592832623366,0.32545454038780175,0.3224907340263555,0.31262314896768356,0.31102519213669966,0.3270575019879843,0.3240533287354636,0.3108664235458815,0.3485486607533522,0.3038067960837814,0.31445902291367195,0.32281918398817466,0.3222446087509168,0.3150207801817853,0.33104212040728276,0.2972905739587384,0.33151742573759624,0.30403999725071895,0.3098589118281806,0.3059165858011045,0.300221861771815,0.34965814584151333,0.3104405727596574,0.3238725481651737,0.3280769490138963,0.29710420176079694,0.2972172787962096,0.3182555129415466,0.32029519716327604,0.30722718461780807,0.37027748689669837,0.31700465082316337,0.3086026308933812,0.30099294419981815,0.3151525217969776,0.3493251405776668,0.30942691169875336,0.3206040979544259,0.30982058865498063,0.32275374541435087,0.31331915717243647,0.35944796408959473,0.32464333408227275,0.33241727178731123,0.3484427487791355,0.3071646796152417,0.2957010494893614,0.330864071453043,0.30747886467570473,0.30679900239419566,0.3714180368238356,0.316535742574187,0.3143916518995695,0.3068572272806821,0.31591237050325166,0.3052334074562212,0.3056977740546567,0.3278342825089325,0.3003101384697996,0.35869137427615483,0.30775606723037896,0.3304536736109859,0.3135507028807789,0.30967530064049875,0.3102342366746801,0.3200609173804412,0.3279073610883749,0.3096793188510879,0.3261003903040868,0.32870455438037793,0.3253616445627965,0.3200726217608322,0.3063470147588938,0.33195592088115883,0.3267166472043865,0.38100720174278524,0.3049694607430945,0.3039401445082256,0.3326024047804513,0.30091258654602354,0.33417059457251147,0.29789191229419953,0.34373385747160473,0.34238217766321255,0.3090278051506941,0.32536199787713616,0.303190018527828,0.31478806597948084,0.3360915532168525,0.3081288129255889,0.30345432340403217,0.3066771066817884,0.32558328767877986,0.31245523380198853,0.30303938588901,0.30176476579813616,0.32770168934977245,0.3051463733326768,0.3084550871769769,0.3112348925666125,0.31221638047430483,0.33525393111035257,0.31211504837497317,0.3341386583612006,0.3215651847627049,0.31198669906880844,0.3135602827463922,0.3208423350319992,0.32620244953763755,0.3320442778149235,0.31384300312518454,0.32882900284655414,0.34556615661075674,0.3053406723913354,0.3026406378841232,0.3273266507891363,0.3008022310902434,0.3245240781478661,0.31204430239743186,0.31412905016273973,0.318264344648108,0.3302203231848492,0.30419996809420546,0.3377187512959736,0.29954560243835365,0.3055076151335665,0.31495524479181636,0.31226411862666753,0.3473076375320798,0.31422503020841297,0.3131312249092112,0.30247433831170867,0.3136795717899644,0.3053209187542694,0.29970548537002595,0.35028082763921387,0.3278723333919614,0.3023599935202078,0.29523385417595327,0.3122809320133181,0.33990728243588314,0.3204684874184243,0.34643918724539585,0.32222070168421413,0.2936370635133933,0.29898411247642104,0.3016830056605185,0.3328074316547915,0.3100674511276915,0.3239061326277999,0.3059086759468124,0.3037650098244412,0.3133457220055881,0.31368673735298336,0.31494644805110966,0.3158669245001619,0.31452000481175035,0.32606937965702776,0.3544936145314669,0.3107871211530294,0.3123573788049813,0.32232518932637455,0.3260563292142006,0.3031707391343389,0.3049532177558994,0.31941449084476287,0.30775860107234243,0.31213471045995855,0.3406398383967565,0.3108005823889264,0.3164812543637943,0.31940344327713394,0.32000320625477413,0.31450206425845095,0.3056186174916693,0.3488767415181515,0.3043940992770583,0.33296012700638916,0.31347670017950413,0.30084081086025216,0.32133292869008456,0.3628299333136131,0.30428189333247496,0.3170203152957201,0.3045213785249271,0.32192975606487284,0.29676520249420135,0.31885024575038773,0.3035367547114106,0.374174321810757,0.31558466872850643,0.3044989333970926,0.35424329496784934,0.30532245970761984,0.2977548614825232,0.3007173682599327,0.3215378820319068,0.3166936556678968,0.32588025621760985,0.3533427967977332,0.29807436086718964,0.34159763458497916,0.3294497423790653,0.3337068201455108,0.34185459752123215,0.2976638556684551,0.33717183638010245,0.3404146516460338,0.29893486516970114,0.29817616857365853,0.3042647710621368,0.3060974917911486,0.29687150035119425,0.31281409245485653,0.3655705321155579,0.30709070797788035,0.3300321395050039,0.36062989062600703,0.3445782462839147,0.3178863410779044,0.34415759229020393,0.3219456542198271,0.3379371241990666,0.3295943903497158,0.3172633112234829,0.3233872816244564,0.30215567188481407,0.3341165071998621,0.2977346644620506,0.35348397271622334,0.3286514740142466,0.3406754694172158,0.3325488633998211,0.29185513493315696,0.3625188683835014,0.3419615260731643,0.3153723095753772,0.2987859810141401,0.32762526053191254,0.36057186531019536,0.3155124870115433,0.32844466237597986,0.3289257449587117,0.29220894839837347,0.3083707249406622,0.326626533862694,0.3279733213590318,0.32853562539769576,0.3011309622150532,0.31865859843389943,0.3178064069062617,0.30368706272728047,0.31439605016073646,0.29913768011834885,0.3352465305685476,0.30047813135506957,0.3308623678355239,0.3146061949971467,0.3287428318222365,0.33514405798839597,0.32030977943612277,0.3276217457967993,0.3220746187142163,0.3077860410066551,0.297849849985069,0.31451231356779996,0.3232259601602146,0.3333961666499728,0.3124010259956292,0.29974692208910875,0.30107761718889214,0.3199837997307318,0.3254765459017509,0.3208875065069573,0.3179898344289832,0.32586627458637857,0.32715969634666564,0.31710062631816543,0.3300773820608963,0.29723636126116054,0.3121581771469924,0.32423801926444507,0.31434190818852514,0.3354466651574389,0.30609128599109514,0.3210784069884719,0.30744271124241146,0.30439186486485587,0.33782330036520347,0.3235908830814949,0.30843745378259285,0.3139361239378341,0.3346754084784242,0.2952265138368534,0.2940674495410068,0.3126106866923656,0.35301906823593066,0.32252775029275993,0.29470671342484495,0.3217378232716203,0.34105427029038443,0.32175408072962697,0.33495534768405844,0.3363127184487663,0.2956116285998759,0.31220518739700837,0.3369953274313401,0.3136852479079754,0.30671649739692464,0.31738344786155837,0.3126005876584296,0.31656922942039767,0.32961973721569887,0.3958547094999273,0.3135150710946181,0.3089417714821975,0.3557124175767626,0.32032630707838317,0.33743488843081765,0.31099639001971013,0.31923233656705585,0.308262295318704,0.31374135534831543,0.313340104975259,0.32910014370961505,0.31752874822523663,0.3109773522364425,0.3050646640449358,0.3185062443990752,0.32065536167329195,0.309520527583688,0.3190472133272675,0.3682443421984706,0.3028965939144309,0.32954368091895125,0.34439181681090153,0.3215007124530969,0.3026273900492089,0.3170083032782648,0.2981672308432063,0.31556738018505837,0.3436884862977614,0.35030084052775295,0.3016249908642731,0.29434962894232,0.32073157785568307,0.34528541581831657,0.3239259184306723,0.2990325599455691,0.3169652980555786,0.360487635522286,0.3127982383228316,0.32620111290032316,0.3207063185807765,0.3103196521861097,0.34183222812632663,0.3196313250743857,0.3140795011483393,0.3110782372843045,0.3114921067101619,0.3222368034269621,0.31488293952757157,0.2971058892548948,0.32442614056252655,0.311581598129056,0.3100878520350777,0.3023467079229272,0.3055555399526557,0.3406107522813132,0.31711611788634925,0.3270799914622387,0.31472059261457785,0.37836750124339635,0.33958417896981324,0.35667664276343924,0.30751573865026927,0.31187390367254253,0.30433372071178133,0.34143853677395514,0.30334189688653934,0.3501137362622753,0.32534939213479175,0.32714871848303756,0.3261734107804711,0.32262379705396993,0.3490980603048886,0.31568279352786177,0.30528604706750856,0.3027619062475523,0.3493324779089596,0.31970594301908256,0.3001876737341458,0.3067517184319918,0.31007647468434907,0.3380864707075949,0.31021368295990526,0.34668661209840124,0.3302035999955466,0.32863895756227224,0.30607424772419656,0.3238129199019776,0.3172021553109582,0.315212798393219,0.31361411830696484,0.33117106289260684,0.32797454038031904
9,0.33058008018883556,0.3175210020006342,0.3325917330711883,0.342486701253779,0.32174535959868095,0.4028499703429554,0.33807951444056034,0.30689657135085535,0.33089863593080676,0.31456633042200277,0.31463595114204657,0.31273441355824727,0.33845574005366486,0.3033774865898772,0.3591417208945495,0.29876064984705597,0.35866773038536276,0.3122767001235684,0.332996077349327,0.2980732731841127,0.3123866517172028,0.3030749520227687,0.3064313078996913,0.3247004356520533,0.32333304935232027,0.31566452336369205,0.31224398904627904,0.31402093069259995,0.32648568510054854,0.30562639069552455,0.3165404284595246,0.3545374807553058,0.30026616490328795,0.30587340075702746,0.32076514805806744,0.3072289478319279,0.3354998106241864,0.3225889618848743,0.29227987317361365,0.34424449488101083,0.31474039855653696,0.3228676271731676,0.39515529061204885,0.3384868676152046,0.3386268181418848,0.30092438484060013,0.3640509137917002,0.3344918532931066,0.3154208593891424,0.318705291218386,0.33225811616183265,0.2979368561902674,0.36160029613084566,0.331277813979527,0.33308749910562346,0.3413161758700854,0.31501802401101,0.3218121567426203,0.3643421543438952,0.3368979598557226,0.3091812884363845,0.32001941326273153,0.3143030255259406,0.37898977869158046,0.3047810686128338,0.32911028222372685,0.310332754496045,0.3009017748072297,0.3043927861028112,0.30666058983289834,0.30533858365814304,0.3231722172260543,0.30624635926089117,0.3395112955284462,0.3309942378748184,0.3014467393181276,0.33830655507069674,0.32340424253482986,0.32656080166636675,0.35081978883841963,0.37293296591227676,0.31269215513387605,0.3100718560781204,0.3358890080578445,0.3071002633472164,0.3289587157555508,0.293186615167349,0.3099496446447303,0.3455113449207945,0.3099557251888255,0.3270846556440326,0.3403725291736013,0.2903416458311884,0.3418138295263622,0.3722392560602339,0.3468571205408244,0.3132202075254832,0.3077294569250254,0.3093951296994001,0.3424692464802628,0.3375769305851026,0.32239051421717335,0.32829720928622513,0.31111358432779934,0.3073917727371534,0.30894604785938723,0.33352655685326515,0.30880423428981973,0.3318086713765271,0.31208848055933136,0.3351336596721878,0.3142910471575443,0.33054494581693306,0.3252128138034739,0.29679902106817635,0.3239204126483699,0.34131000710682435,0.32817695528412155,0.3297932450597519,0.30436746356102845,0.29861375099698406,0.31838078929561814,0.31369992306318817,0.3200605914789441,0.3764541595779905,0.3161195395089892,0.3236479480108358,0.3149070468003149,0.31448411209016885,0.31035562564726293,0.32025876658830355,0.31099150962753247,0.29932142628759445,0.3014816332041906,0.3066766164298942,0.3300958181837156,0.3152946495638835,0.3361192054052318,0.33811629537897414,0.3095308572064369,0.31467759988265986,0.3097494880444355,0.294651900231746,0.32226960900120966,0.33888511241551755,0.3204952310127428,0.298430443449337,0.33696859929593087,0.3252284554267605,0.2904833686044245,0.33833801459424845,0.3465695775832664,0.29688393938894475,0.3183348191373917,0.3085456816536814,0.3172583982913481,0.30768507643379844,0.3193223733640832,0.33024856329317315,0.3509028021914366,0.3133641781104726,0.33940372493320903,0.3326529953294036,0.3360680210163363,0.3188563071645102,0.3339429235233758,0.3220938659502758,0.32739931349068613,0.3289840303160079,0.32349407771081723,0.3253823423327239,0.31640526528248303,0.31302294509817774,0.3074778319777646,0.3037046740832457,0.3185436560240352,0.32544217433001904,0.3264951837490203,0.30738669861557455,0.3045883564087662,0.29968436876606275,0.31542415161923787,0.3116767497017857,0.31272609817647434,0.32126605124392343,0.326507214228539,0.32695232815749564,0.32450969416818193,0.3088322554920221,0.2918812027930349,0.29842268078936984,0.2942667006730327,0.3043408644289635,0.33102142671696677,0.30167324763234243,0.3241328653806993,0.3169784369382597,0.3660608165732248,0.30754842407276783,0.3016338048390864,0.2996085686487258,0.3140021747867975,0.3233663485841759,0.33719345122235445,0.3492366447504464,0.3011157628419332,0.31600837158344636,0.29791799861793533,0.3127697957618521,0.31640081761441374,0.30863164231444706,0.3383232061783451,0.3035050013930384,0.32746590170058376,0.32066522753001797,0.3191742758612519,0.31460869295531807,0.3144042639348445,0.3051024951120747,0.3236140137139535,0.3134506674013365,0.3397112033371398,0.3786162840959466,0.31765848337999913,0.3017908849658003,0.31521207678453,0.31298430237208125,0.2996477847931121,0.32296695710535905,0.3558157495712798,0.3247555716219437,0.32999504950285125,0.3332554299448448,0.33513723425806596,0.3020154984149691,0.32706269089432466,0.3102420293172433,0.32309526934751365,0.32825690728493295,0.31974802910235034,0.30024992388923366,0.31122043596814775,0.3059186005891027,0.30645062675184687,0.31892729301463973,0.3027508734127817,0.3002995884360109,0.3115451413483471,0.32438850988942447,0.31705120738869164,0.32431178173603037,0.3199834007306076,0.3228362139325085,0.3041620581832865,0.3296688446397448,0.33464182006594756,0.315524122764791,0.3170385515843692,0.3040437880831941,0.3295286446828888,0.3256729426645331,0.303758466775502,0.3711954387066191,0.30420223382566225,0.30132515123783155,0.3475176946000711,0.32487359757189216,0.32366329436165225,0.30739201918061376,0.3268722647340392,0.29281860678154237,0.3087481955038255,0.33842461461374096,0.3057265002717223,0.3218831256023804,0.3263513018009018,0.30730038973527873,0.31972546924981354,0.3344823446092225,0.30476855475524567,0.30868687808865647,0.3533435394347659,0.3112834237259133,0.3120784364674899,0.3062509387643989,0.30446259154477195,0.3258207911312746,0.3119376313182615,0.294025916712623,0.3130681153493053,0.32681558737010785,0.3073846382396138,0.3091307074059315,0.3290016254740441,0.3164427453399518,0.3103567833633986,0.3109029390335875,0.35525129841278436,0.3018842594510551,0.30345784315550717,0.33292602464735077,0.324227413808072,0.3012951397317677,0.32091508924774004,0.3048961368120489,0.2949969032936709,0.32944139399787065,0.32258358073333493,0.35754288259376554,0.29962198693215947,0.3193883127526627,0.306049588655638,0.3563062789506625,0.29895646214825866,0.2974284053780657,0.3203541012099488,0.3184078012803664,0.3209110233798736,0.310059913634182,0.30427413456292246,0.31341803153669506,0.31675907184223956,0.315212093235746,0.34937595839159624,0.35047509531091464,0.33343620112646216,0.339228698426646,0.2930584706227616,0.34819884484322394,0.3082286831118438,0.30488697113059593,0.2957085179610101,0.3153844053018383,0.32287861595586576,0.3037693950715433,0.3111179521084844,0.31296097897784037,0.30142284835613914,0.315504244599652,0.3622868800034935,0.3479265653155067,0.3467752428232105,0.31260836567375355,0.31374961250946687,0.3288591086660585,0.29466077526059464,0.31290358670421853,0.31586795676498475,0.36028447056754265,0.3046214918970943,0.32336144951862905,0.31354324198647326,0.33010867422272755,0.3099498029163191,0.3359885158010092,0.31455731606189746,0.30753729089279763,0.30822993822401046,0.29846434172202535,0.30630445421006774,0.35206296196414455,0.31562486057034184,0.3165294526922054,0.2980442978758246,0.30826529399729197,0.3157122292516482,0.297762784494067,0.3042697464923564,0.29722933649788674,0.31206978416878683,0.32744976370164947,0.32311246625891843,0.3328166863701182,0.3438262373275361,0.317721482140514,0.34822760729190183,0.326274041531033,0.31221154562082,0.32363000638274364,0.3280879970707009,0.2993140298188599,0.3027451791476791,0.329033407834957,0.3118146175704193,0.2939809929671,0.33962653029822093,0.3145293374113275,0.30950454211393963,0.32073009306167777,0.30108664435975724,0.30463653929824186,0.31079941406775,0.3474536120822577,0.32648180932364146,0.3253483507050326,0.31568526182035156,0.31587161140311715,0.38168689005248047,0.2990326167444045,0.33009619958331554,0.32684241143322884,0.31460944063765783,0.3069561089324681,0.3076339041143873,0.31637252020145795,0.33679028016966883,0.32512198672977055,0.40508415336012976,0.3315555559770538,0.3231501246454785,0.3282740256800694,0.34725251758325265,0.3129402312428121,0.3287253182774993,0.3311016895831459,0.31342470494611885,0.3081011621555564,0.30281852958580013,0.3197682214743485,0.3142215282051797,0.3089659627442452,0.3216449077018829,0.35700234404319564,0.318743905659271,0.30960078510617267,0.2948252206566532,0.31782353298143834,0.2941293482643147,0.31796242419154125,0.32341114955401995,0.30553511630975605,0.305217339482302,0.33736385937741187,0.30663869090110213,0.3130098387562031,0.31886030347698047,0.3474118712756352,0.3025417950937415,0.2916382998862036,0.36132755314107146,0.31694837570090556,0.3178853050033684,0.3231272920229912,0.3129630476965796,0.3192534863406112,0.3116589101275381,0.3268581823009077,0.3116295968181784,0.3294369110739558,0.34688235728728767,0.3134776230678264,0.3187679898954726,0.311370781106978,0.28784421079715516,0.34214527147469415,0.3273141386718038,0.3188771049052438,0.30481863769889495,0.3035254598561954,0.33383467976241704,0.3616472368460191,0.34163411325856086,0.31111160634529866,0.31963224934256057,0.3030780691232512,0.3274872446382301,0.34202659361733156,0.3309527494139643,0.32466636694879314,0.32246136985138235,0.32206014785538384,0.3044273964522477,0.3467156490648796,0.3008784443371613,0.3325414578057522,0.3279668122806366,0.31108031700456606,0.30327164467084156,0.3228057789505527,0.33816978341518444,0.31037025457223,0.3293578617838478,0.31939043481650004,0.30486462353451454,0.297489482206596,0.3318224663814376,0.31318512678722,0.3237960663993737,0.358989781520186,0.31493217600904216,0.3423850926365886,0.3107342397907763,0.3349392323604887,0.31209112934224753,0.372355787912022,0.29474645281617023,0.33844765518906633,0.3058827045086377,0.3233331658625745,0.32901939764575083
10,0.30864502622151857,0.3280171241697237,0.32381395147163106,0.3170170129258043,0.309505877472558,0.3536905153801077,0.3345896061006861,0.3324773889851581,0.323674306104888,0.3106713496368654,0.3291253508803193,0.3323168808316414,0.31502415159501945,0.30404549800671776,0.346742052997108,0.3197853654194287,0.34205733153706974,0.3145585048665499,0.3102879053352262,0.316810585099054,0.30026061251098435,0.3289078785214097,0.3144952469932741,0.2984034271368246,0.32613518646300466,0.33369350797374225,0.29818025588055974,0.30651189723125855,0.3356679586313963,0.30203285795996315,0.3219317639957223,0.32384555030406487,0.3062472835698949,0.3182088562070545,0.33416394468551985,0.32312730959029634,0.35045841349953644,0.32967598809585125,0.2905036073209035,0.3604412924254471,0.32133520972379725,0.34090509982752154,0.3560328051918082,0.39990525443366837,0.34187274018376057,0.30031799604016296,0.35796900918102936,0.33552068676920244,0.31079057046434133,0.31577240461824385,0.35695897904876495,0.30624485589102884,0.32853056536320596,0.31816663943527956,0.33511208370565915,0.34041942048587626,0.318429962464798,0.3115032933974765,0.34480584191901387,0.3353450227268686,0.303361564660627,0.3143467104494149,0.31611032482910534,0.38756944109857927,0.32549343872855296,0.33823074517007556,0.3079263725043556,0.30432158065449055,0.30778542029782835,0.34878995163727067,0.2983006602006562,0.3389164355950956,0.32628077169201763,0.3197874054458499,0.3130898152435991,0.29764376131863124,0.31767095377459287,0.30604281321387194,0.33609208999601775,0.3130734214392964,0.39115230017164737,0.3033332682346276,0.3145393357283654,0.3629908904396848,0.2986695243442229,0.3539571557594551,0.30088354735127865,0.3050217665377791,0.3245044778459237,0.3076025118138421,0.3517665605694319,0.3352869269321427,0.31960946893709846,0.3128947212187563,0.31804868354641275,0.34976659569080726,0.3404266079156565,0.2996323691707278,0.29448640577173124,0.31190378657241524,0.29973299775186163,0.3244344954834245,0.3424631599565021,0.31576959665907106,0.29927853685784117,0.29827925905750863,0.3349433081233174,0.3227465439387914,0.3273336992527936,0.30298724005733646,0.338821891553514,0.31422704330027823,0.30888587485046476,0.3202405078615305,0.31399412598930626,0.34946931042229185,0.33339661488787514,0.32246748038507655,0.3155908649413417,0.3094924271513121,0.3010280683604773,0.3292650392150313,0.32151717351728826,0.3195200010404796,0.39982479136347066,0.3319665414139106,0.3224615846803598,0.2984475068201541,0.30892767650348524,0.30566929827086775,0.3284292466008047,0.3233193918591273,0.29788851814121914,0.3164577390169814,0.3119135299728593,0.32612883824610556,0.3165449222456124,0.33015490409015325,0.32028492158954536,0.35556722378390027,0.3082809466492463,0.33141157311329494,0.3056502443931494,0.31635600184265333,0.3168006440797391,0.3317374504939924,0.32923262042670803,0.3044137290521428,0.32355159258268457,0.2972925122228166,0.29903766934449105,0.344088872845891,0.307371476393164,0.3752908233247047,0.30549943739790775,0.300668245619785,0.36308578221469656,0.3122771131505162,0.32846950499675565,0.3210437577842165,0.2932249603807772,0.31738883031005394,0.32339901329346393,0.3129058859537891,0.3039510519108503,0.299122708011988,0.3030539033143364,0.318913627367975,0.30025894774576767,0.3418299274068689,0.3390270485789078,0.30992328787214485,0.3178894984477619,0.3093051418169057,0.3410693227102193,0.327561897787212,0.32510772919980196,0.3284975374945728,0.321390807959396,0.33604965049942026,0.29265082635956535,0.30464951694047243,0.32771326060839423,0.31502906527976016,0.31551411332175916,0.31583648732773334,0.33622508115990724,0.3120387896685726,0.32741272444985803,0.3045061195895748,0.3069986674920908,0.2952083596139603,0.31852954164641223,0.349170962766644,0.3045142105879085,0.32513292858031634,0.31402593767619713,0.31801232075185365,0.3246609784440588,0.31166103092916503,0.29921357704936424,0.3431614075683417,0.3240040440705113,0.33361095777693145,0.32746248914961773,0.32908436689710413,0.32164595330335466,0.33296786921020594,0.3313979621166564,0.3249316541083319,0.2953234351759724,0.32203459780329785,0.3178025060551316,0.3117580713044167,0.335866053924038,0.33119082920397236,0.30287582576617356,0.3089560564258572,0.3199323934404318,0.3213121662653924,0.3558377953825416,0.34670248491603944,0.3350176577319789,0.3120052818377848,0.3018721932600425,0.34475855919368026,0.3071626520368768,0.28636475866524735,0.31185321066885135,0.35990741487778777,0.31889877661369936,0.31030426285969304,0.34130557732428396,0.3084148826780368,0.31418650024867706,0.3179388303813333,0.3134583303186864,0.3487961487602434,0.317589825511977,0.3091860689569167,0.3052461053698753,0.3159106937411751,0.30413909045373744,0.3081894234931128,0.3115295059009046,0.30758519135937745,0.31956025705425717,0.3101550971072252,0.30546777183653534,0.32705571922622934,0.32426458542111886,0.3285694650863694,0.3191522904344111,0.30968670874266807,0.3237158865573057,0.317985221590806,0.33141794137736413,0.32094226517062485,0.31285354803776444,0.33008915511439807,0.3143725768284346,0.2989883720830408,0.3455104216700786,0.3509152053113139,0.31638455417908407,0.33644657926967275,0.3178990323187407,0.3003885375916003,0.2974895146022619,0.32031518792940705,0.3012766617360153,0.3138235655965705,0.29929028684626696,0.3081784569704751,0.33452860343375707,0.30587820849202874,0.32269957100466534,0.33180216955073466,0.32134791487972253,0.30524993851729626,0.3180215435918657,0.32486249763576514,0.30654596961478087,0.30632416054275374,0.2917094659376272,0.3121704971448644,0.3088992095864274,0.31601142939458027,0.3354164118317407,0.3128614015425091,0.3287751414132623,0.3232816831058424,0.31839958982470973,0.3024142839627024,0.32168836459312333,0.30921336546354705,0.30137576703065155,0.3354529371150398,0.32603648170373234,0.2950374025328546,0.3419229387508252,0.3547914677287905,0.30053429109502705,0.30344925687454694,0.29675365146151333,0.297285060194147,0.31734002953380047,0.30114586874497484,0.3617315198850184,0.30664998787091297,0.349459829407879,0.3168553144163379,0.3365048238030127,0.2982989815538545,0.2940128486066368,0.3202526666768883,0.3171281924486059,0.3280404756780777,0.3069331691181067,0.30709459040273074,0.30031428249077996,0.3340194452307911,0.312108514813424,0.34440057597189255,0.33872765786430115,0.35282454575420014,0.34903134305946804,0.293797303469841,0.3249400372910242,0.3188969442130164,0.31969295017906335,0.3079993997400156,0.30850296733891425,0.31867233014172375,0.31588700890005544,0.31274988735088904,0.30517564207702785,0.29424794117635333,0.3275758543025259,0.3342603066704535,0.3310316400446339,0.3319584364121504,0.3235127451344603,0.3136932579611418,0.33371261569394506,0.2895951403195798,0.30093624943219777,0.3057451884247248,0.3588468950240048,0.31820199635940927,0.3180612736574093,0.3045398291629192,0.3415592206312647,0.3790752268065,0.32179067394486544,0.3099923158607036,0.3399279854443463,0.3098913509492701,0.29641277885258654,0.31698393969800265,0.3111823256247338,0.30037271838756435,0.332034400127454,0.3009729791797457,0.3166038353348262,0.3244060412035444,0.3114573634891197,0.300103371297008,0.3006368427005876,0.324158348998817,0.32720396130677265,0.31134615376254415,0.3324234101700595,0.3069390121659204,0.33565929370525455,0.3620130128665243,0.32106350696216174,0.3019975750739936,0.3162819976498355,0.34968021914398245,0.299295500254008,0.3065286859276408,0.3223130601155984,0.30865248106564425,0.2983184010233412,0.30970051744354915,0.31096117881536467,0.3052887690954276,0.29506605377681716,0.3136168734324062,0.32769197584538645,0.32479497332506424,0.3016360555043386,0.31218873572177264,0.33449080899639416,0.30926136349957417,0.3227452223454573,0.32709790752845014,0.3045940160873143,0.35908350876648865,0.357604804241772,0.31214863164377904,0.29083758137398896,0.3285488201586057,0.3108081690818151,0.354229274175048,0.34241987306454985,0.3418706737612637,0.3164232263407205,0.31294550096099194,0.31726063490252004,0.3286850408758063,0.32804372107460106,0.30471903133054995,0.317836354764376,0.30555057169464817,0.30407888779129244,0.32047501533203515,0.33476987175945316,0.31906019668898244,0.3176605359166364,0.301309457067339,0.3431290428393041,0.3240310091693348,0.3053159643439779,0.3031340482095186,0.3177836672736881,0.32401979532671765,0.3243916275368717,0.30056902167217675,0.3198881820730025,0.2985093469018694,0.3177300690983994,0.30611224402067166,0.3017499915759586,0.3077037431402185,0.33969739301491303,0.29495799434306263,0.29502236703573437,0.35427446760182096,0.34294209056678293,0.3325130266006846,0.335636087788921,0.3115943890164827,0.3517513118503496,0.33474416007861635,0.3208220800261275,0.33151291384975495,0.31634046863525783,0.3359326986944477,0.2973613960947285,0.30824940308358373,0.32386955778128945,0.2976699140334634,0.33732069626696826,0.31570783232145583,0.3166546510562648,0.318845439003098,0.3018923685327202,0.34175028970316845,0.3031819284955063,0.3342454259888116,0.31318103101433004,0.3067155098488062,0.30018994867936133,0.31976791997868237,0.33566332069774646,0.3326909750988643,0.32294643057975714,0.3292551820028577,0.31352618621548467,0.29463157556445435,0.3277819200994177,0.3120185747466522,0.3175551560112241,0.3280350512416675,0.3054604443695046,0.3039376436027342,0.30682390935941256,0.3662624186498646,0.3128314460398201,0.3178904997743718,0.302164082982558,0.3203457314575662,0.29459290697491924,0.32175809052007714,0.31453071629445317,0.3074851385777715,0.3444722204761229,0.31306903072420705,0.33538452196283747,0.32018607984930114,0.3177579620824384,0.32347254528337727,0.36532348505026835,0.32024797751117795,0.3287059138953266,0.2977314603689685,0.32277577508740085,0.3019681055289075
