t,rep_0,rep_1,rep_2,rep_3,rep_4,rep_5,rep_6,rep_7,rep_8,rep_9,rep_10,rep_11,rep_12,rep_13,rep_14,rep_15,rep_16,rep_17,rep_18,rep_19,rep_20,rep_21,rep_22,rep_23,rep_24,rep_25,rep_26,rep_27,rep_28,rep_29,rep_30,rep_31,rep_32,rep_33,rep_34,rep_35,rep_36,rep_37,rep_38,rep_39,rep_40,rep_41,rep_42,rep_43,rep_44,rep_45,rep_46,rep_47,rep_48,rep_49,rep_50,rep_51,rep_52,rep_53,rep_54,rep_55,rep_56,rep_57,rep_58,rep_59,rep_60,rep_61,rep_62,rep_63,rep_64,rep_65,rep_66,rep_67,rep_68,rep_69,rep_70,rep_71,rep_72,rep_73,rep_74,rep_75,rep_76,rep_77,rep_78,rep_79,rep_80,rep_81,rep_82,rep_83,rep_84,rep_85,rep_86,rep_87,rep_88,rep_89,rep_90,rep_91,rep_92,rep_93,rep_94,rep_95,rep_96,rep_97,rep_98,rep_99,rep_100,rep_101,rep_102,rep_103,rep_104,rep_105,rep_106,rep_107,rep_108,rep_109,rep_110,rep_111,rep_112,rep_113,rep_114,rep_115,rep_116,rep_117,rep_118,rep_119,rep_120,rep_121,rep_122,rep_123,rep_124,rep_125,rep_126,rep_127,rep_128,rep_129,rep_130,rep_131,rep_132,rep_133,rep_134,rep_135,rep_136,rep_137,rep_138,rep_139,rep_140,rep_141,rep_142,rep_143,rep_144,rep_145,rep_146,rep_147,rep_148,rep_149,rep_150,rep_151,rep_152,rep_153,rep_154,rep_155,rep_156,rep_157,rep_158,rep_159,rep_160,rep_161,rep_162,rep_163,rep_164,rep_165,rep_166,rep_167,rep_168,rep_169,rep_170,rep_171,rep_172,rep_173,rep_174,rep_175,rep_176,rep_177,rep_178,rep_179,rep_180,rep_181,rep_182,rep_183,rep_184,rep_185,rep_186,rep_187,rep_188,rep_189,rep_190,rep_191,rep_192,rep_193,rep_194,rep_195,rep_196,rep_197,rep_198,rep_199,rep_200,rep_201,rep_202,rep_203,rep_204,rep_205,rep_206,rep_207,rep_208,rep_209,rep_210,rep_211,rep_212,rep_213,rep_214,rep_215,rep_216,rep_217,rep_218,rep_219,rep_220,rep_221,rep_222,rep_223,rep_224,rep_225,rep_226,rep_227,rep_228,rep_229,rep_230,rep_231,rep_232,rep_233,rep_234,rep_235,rep_236,rep_237,rep_238,rep_239,rep_240,rep_241,rep_242,rep_243,rep_244,rep_245,rep_246,rep_247,rep_248,rep_249,rep_250,rep_251,rep_252,rep_253,rep_254,rep_255,rep_256,rep_257,rep_258,rep_259,rep_260,rep_261,rep_262,rep_263,rep_264,rep_265,rep_266,rep_267,rep_268,rep_269,rep_270,rep_271,rep_272,rep_273,rep_274,rep_275,rep_276,rep_277,rep_278,rep_279,rep_280,rep_281,rep_282,rep_283,rep_284,rep_285,rep_286,rep_287,rep_288,rep_289,rep_290,rep_291,rep_292,rep_293,rep_294,rep_295,rep_296,rep_297,rep_298,rep_299,rep_300,rep_301,rep_302,rep_303,rep_304,rep_305,rep_306,rep_307,rep_308,rep_309,rep_310,rep_311,rep_312,rep_313,rep_314,rep_315,rep_316,rep_317,rep_318,rep_319,rep_320,rep_321,rep_322,rep_323,rep_324,rep_325,rep_326,rep_327,rep_328,rep_329,rep_330,rep_331,rep_332,rep_333,rep_334,rep_335,rep_336,rep_337,rep_338,rep_339,rep_340,rep_341,rep_342,rep_343,rep_344,rep_345,rep_346,rep_347,rep_348,rep_349,rep_350,rep_351,rep_352,rep_353,rep_354,rep_355,rep_356,rep_357,rep_358,rep_359,rep_360,rep_361,rep_362,rep_363,rep_364,rep_365,rep_366,rep_367,rep_368,rep_369,rep_370,rep_371,rep_372,rep_373,rep_374,rep_375,rep_376,rep_377,rep_378,rep_379,rep_380,rep_381,rep_382,rep_383,rep_384,rep_385,rep_386,rep_387,rep_388,rep_389,rep_390,rep_391,rep_392,rep_393,rep_394,rep_395,rep_396,rep_397,rep_398,rep_399,rep_400,rep_401,rep_402,rep_403,rep_404,rep_405,rep_406,rep_407,rep_408,rep_409,rep_410,rep_411,rep_412,rep_413,rep_414,rep_415,rep_416,rep_417,rep_418,rep_419,rep_420,rep_421,rep_422,rep_423,rep_424,rep_425,rep_426,rep_427,rep_428,rep_429,rep_430,rep_431,rep_432,rep_433,rep_434,rep_435,rep_436,rep_437,rep_438,rep_439,rep_440,rep_441,rep_442,rep_443,rep_444,rep_445,rep_446,rep_447,rep_448,rep_449,rep_450,rep_451,rep_452,rep_453,rep_454,rep_455,rep_456,rep_457,rep_458,rep_459,rep_460,rep_461,rep_462,rep_463,rep_464,rep_465,rep_466,rep_467,rep_468,rep_469,rep_470,rep_471,rep_472,rep_473,rep_474,rep_475,rep_476,rep_477,rep_478,rep_479,rep_480,rep_481,rep_482,rep_483,rep_484,rep_485,rep_486,rep_487,rep_488,rep_489,rep_490,rep_491,rep_492,rep_493,rep_494,rep_495,rep_496,rep_497,rep_498,rep_499
0,0.302338960398092,0.30055855975211204,0.28868382218160693,0.31313697802788737,0.32046142346121564,0.3041314423916258,0.3077707752590598,0.2986643308852609,0.2907267124080922,0.3059336997733674,0.29114562483739426,0.29807827322401964,0.2923279114193241,0.3070654224745328,0.2993132080415267,0.2960442879616795,0.3097857581874762,0.31619120177684834,0.2940315209116777,0.3043054553223493,0.29491738134248796,0.2965931204467401,0.2996325186717172,0.30512936373098315,0.3054124873370767,0.30498157329852515,0.2859019702497033,0.2897845400675927,0.29902893855119883,0.3248612661778899,0.29536852991285273,0.2952696319359306,0.2958532788485992,0.320386547868275,0.29295545901880815,0.285495414700365,0.2961080399123846,0.2991698466256894,0.3140259642929798,0.338285120354511,0.288131163353763,0.28445725352298534,0.30789479889277666,0.32102880676717577,0.298299338820038,0.3002422126377089,0.3006333856205382,0.30088768167069224,0.29154582537495805,0.30745445954636186,0.303047268209973,0.2973495439883068,0.2940564325763211,0.30047184795972837,0.3024104295940816,0.3120498847144197,0.30301806991411834,0.3053628479722021,0.30456983789962755,0.3258559162135831,0.31997756938597405,0.29911309733002966,0.29047710464708953,0.30291950113560234,0.29408984105339686,0.31597490535734785,0.2900683774825761,0.2870500053013469,0.30657030941531327,0.299270396548347,0.3065557180711703,0.28580919330484245,0.30250957656114363,0.2955555166130128,0.299959211293883,0.2946459512891627,0.31303724883942796,0.3004768977223083,0.29718685935543626,0.2917322961718158,0.2912992057079107,0.30149044452094675,0.2946603793005155,0.2949852506842233,0.29438322659404154,0.29169336203546176,0.31453502776612435,0.3003347629544776,0.2949544003571748,0.2910998080799181,0.3065338272560644,0.2870088761080006,0.28606321099261967,0.3140529232512076,0.2852871022444775,0.2975348411593234,0.3040774880834365,0.29071668272985357,0.2936469274297855,0.30074063255766575,0.3049855537453302,0.28781843747885605,0.298254928322912,0.29939093009743123,0.288566911503337,0.31161686901827423,0.3284381949627341,0.30734001793871224,0.2908702381782074,0.3075283531948468,0.2964936220559033,0.3051144970213544,0.31052351619489105,0.2991266630035866,0.3087618795743794,0.2918765912706686,0.30447548594114276,0.2896398894500657,0.31893764544197173,0.2914665635944287,0.30251630912710564,0.2969854803172595,0.30022642716766623,0.30578999624282205,0.2940636917356419,0.3067712395808486,0.2951375231543079,0.3157128744525156,0.2960461042327102,0.30658232564252047,0.2888609245311759,0.31077670780022537,0.2971910315169507,0.3023696227246177,0.3021082275097914,0.294510700138048,0.3051509199000694,0.3005247053656571,0.30065296624542726,0.2957211225863392,0.3004789477836544,0.28964356325038443,0.28613214976889484,0.2985769510328961,0.307108034829498,0.30501299698547846,0.30121567900344604,0.30109696389108265,0.28685191046810327,0.29671204198226075,0.2922045070487659,0.3061385214150362,0.3093858424938733,0.28548694486502385,0.29368631873908385,0.32158724977664493,0.2995269861596644,0.3097931811929544,0.2863880835023627,0.2975218458855738,0.30436270858976855,0.30022669350433656,0.2983751118122576,0.29788197490533186,0.3080425841447451,0.28421744074181854,0.290349717674554,0.2874889630656474,0.32213737054851677,0.2900159136252468,0.29581471367177337,0.3001165975393525,0.3029762783886243,0.29744578028629615,0.3153863793697375,0.28833153759623037,0.29885491512279544,0.2919119504266393,0.2933956204188123,0.2961371268765517,0.28551440742739154,0.302951850080715,0.3069231714229001,0.30671046968157195,0.3105068183427567,0.3062268790223886,0.3019753504466135,0.3071180280355198,0.28961374864439,0.2978082409401991,0.3047520925460022,0.30207626930004006,0.2912988821251861,0.3088272439446191,0.2925514078320206,0.31986706904949125,0.2988169492692255,0.290538844915718,0.30658903779772056,0.3120082485543133,0.31323282425860405,0.29073202781079177,0.2915385490442361,0.2988598390536258,0.2951532030710101,0.2869380460480634,0.3085087569368104,0.31297469847875137,0.2888877153333108,0.32708858559858867,0.2979536633569886,0.29826500429720965,0.2907270206686118,0.29556261655466076,0.29564534037738377,0.29177687082056414,0.30165048649292,0.30168196762720034,0.2889554442401415,0.2973719165799876,0.3038672189180287,0.29652404768960644,0.2889706338646035,0.28690872988213034,0.3109233402103692,0.28801770157616147,0.29502893948033965,0.3174192066976361,0.32025453263641857,0.29499139699004784,0.3007756618091026,0.29597622590702344,0.3124335614379197,0.2923915673625622,0.2886620174343727,0.28618096758520073,0.30343080486320384,0.30401064642508935,0.2994554007043806,0.2893779998372968,0.2906677106874246,0.3124350210332247,0.29995986177905737,0.3009880028695549,0.32255979045511446,0.29761376479608526,0.292603220058412,0.3184422660261533,0.32010232681752604,0.28528522867666983,0.31198117265258024,0.29920640144359173,0.29427145707815977,0.2964027115672394,0.2901341246970277,0.31414569511807344,0.3089426431447594,0.30341093028819777,0.2923605433159123,0.28602372151631383,0.2868925331681461,0.3038747597657984,0.30841295053889173,0.31523281554706534,0.32008833422432736,0.3111557659105755,0.2938781304147921,0.29410507931039687,0.2981321950390953,0.29531618550510863,0.3054881548714129,0.29265693342694205,0.29929845602064553,0.2932983728733533,0.3053502042835833,0.2963217839920045,0.2997589736072094,0.2977104258987936,0.30482838408254936,0.28863297497217555,0.2892738606806505,0.2961536692030271,0.29002699351452843,0.28771846419935543,0.3048337216352116,0.3036195324112882,0.2853870246886688,0.29086380410959906,0.2909758998989756,0.2952438201746817,0.32791723218049057,0.30528987516744843,0.2865680869205478,0.2964534493004186,0.29524354568891087,0.31748782371169726,0.30779225204395955,0.30229141659068703,0.2942072392092846,0.29662978640797477,0.30042921102926434,0.29746953443736784,0.28948971592412975,0.29733903198980877,0.291300602531104,0.31688549440644803,0.2909382175652485,0.2980300419060443,0.30141824489938807,0.30451220711286814,0.2914368569829217,0.3348012914945358,0.2934486240560123,0.3053393782396682,0.2899541558603964,0.29543134393256426,0.3049047682105792,0.2953694763495892,0.30348530044670663,0.307566696335702,0.2948709530917179,0.2978236971898743,0.2906524102374747,0.30960967016443186,0.3090827313663247,0.28852288965799505,0.2961774805962375,0.30375665429605403,0.3095074886002894,0.3000188618444379,0.29875375544938754,0.30009945577410946,0.3040865844323602,0.2993785397297558,0.3215913084053296,0.28943087247668864,0.30399695298246343,0.298254195390543,0.2879339943428668,0.2974043456454537,0.2962465999092293,0.30260481999098315,0.3069234132142057,0.30783321004314296,0.2940683649582286,0.3173686326923774,0.2933703068172976,0.28631647686718403,0.29108431769929977,0.34008599415615137,0.28929117156912826,0.31075651679984284,0.3073545692101341,0.2900106962878545,0.31752923866577654,0.30536184735243477,0.30441790509516775,0.29662981198441846,0.2993315377927405,0.28508982930007826,0.2921808421275097,0.2884485805034108,0.28789092212389467,0.29016340634927057,0.30243246636079474,0.28768856393747944,0.2948069263962184,0.3080987264350839,0.3229470008244474,0.2889731802007091,0.30027164359468583,0.2917446200789758,0.30457349310414206,0.28970604483873696,0.35308593422601486,0.29643124901764895,0.29968012149227646,0.30239671757319625,0.29700561267957,0.3001373294886298,0.3076239751267572,0.29730306017859776,0.30785948857564,0.2953344306600708,0.3017233220196338,0.29695925434058257,0.2948813649549646,0.2930323993065594,0.31552892066682164,0.2970562807457974,0.34369100730661445,0.3158319318307378,0.29405882752304413,0.29380056201423416,0.3035221033836026,0.2959310270349832,0.29945406157968446,0.30881397947763556,0.2843209217889363,0.2981487447729336,0.29126059711880614,0.30371932631886966,0.32094933690128924,0.2988285547236756,0.3260560294259199,0.287565543261915,0.3049670619267375,0.2917248949217689,0.31485343207147687,0.30008843053526285,0.3006833660279074,0.31738951165408386,0.31145740873883954,0.30397272234700434,0.3269348012587373,0.3231712914974251,0.2943550061237648,0.2890838968441985,0.3032928363627609,0.299877896200785,0.30349436023504783,0.29843058074524476,0.3516744840950338,0.3024713571707925,0.2984086237213664,0.3053964642316077,0.2931131735285042,0.28581028555441995,0.299558362415021,0.33705195898116164,0.2903216002844594,0.28791746593527145,0.2965923772969087,0.3225898561327744,0.29877339363833166,0.30537960666576786,0.31259408259912763,0.28961905600142823,0.3052912057651382,0.28665193647654374,0.28929974358141164,0.2998510064503874,0.28963604506050933,0.30534577477928637,0.3214464656765401,0.29451385441579553,0.30002738415345875,0.303553815734769,0.303779706567222,0.2909275426790815,0.2970646614439578,0.3004518605537573,0.3034754990586731,0.29529783249011377,0.31847336049236835,0.29651466588560366,0.294780587923953,0.3248213006195151,0.2880302643633112,0.3033214349129866,0.32157977546546,0.2866866151406461,0.29568850207875,0.29601133201562335,0.29050652483207207,0.2914885535029723,0.3058468469102283,0.28921720340994983,0.28917896048538505,0.2941933299538266,0.29828314969111175,0.3078927739401699,0.29125900707753416,0.29771595459264133,0.2920693802326526,0.29516443360780487,0.29052682820002784,0.2907902488878192,0.28879977877110447,0.2917453760930978,0.29190251997477634,0.29452471671074215,0.2900295452050454,0.31837941154407867,0.30999736470660805,0.29669674824447073,0.30485234144899137,0.3111170490244166,0.3066225082403079,0.28901049530336526,0.30628245188316766,0.2985984661176425,0.3120316307908774,0.3546264066129394,0.2982817984085731,0.3004020601681421,0.3023398628673386,0.28809592005527923,0.31480430468721454,0.29296800364077974
1,0.3178405977399174,0.2977936583475071,0.29963939133678086,0.30659150074047725,0.2949824329564738,0.30957300117802955,0.28957363183694224,0.30555448706011723,0.29998839687717055,0.300214737511357,0.30170866069363733,0.2952145856750363,0.2916533732033696,0.29070617739380483,0.2851920364494356,0.2894157192696972,0.2975900328132405,0.3174174484232427,0.29111124685890355,0.3189291394985613,0.296784249137163,0.30017261571866166,0.307872596661938,0.3014058195063971,0.2947522746132497,0.2937353949159098,0.2941412849731732,0.29691826270497773,0.3151866051469632,0.30630981081848246,0.30153342020076,0.30561901534811037,0.29974206510092294,0.3115609860771032,0.3089187499745022,0.29783422340187166,0.3027835052764836,0.28973175328073186,0.28940266812266374,0.291752807541824,0.2883794829370989,0.29278814008273785,0.2986180061936258,0.29803730167994213,0.2944784804706183,0.313624084121823,0.2868932502735419,0.3156745031130512,0.2985646222000273,0.30218173094869855,0.2947935884751518,0.2924424608680524,0.3072113344048556,0.2993086206567126,0.30064073441103106,0.3178290387234733,0.32466877196977767,0.2897530668926495,0.2889086167671754,0.2923296083382798,0.3089233131609503,0.2849062439169493,0.29918276746737155,0.2974876706774769,0.2946352619471741,0.29113667600523313,0.2995766624500579,0.30085358608377144,0.2890267991861396,0.31331146661015635,0.30658867336187934,0.29353822251300427,0.28884138445794905,0.34342583492100903,0.29431260601350545,0.2999902145136008,0.3012709103491059,0.31055892559889553,0.28834564370492943,0.2945927280709727,0.2887650608588398,0.32432631127802025,0.28680359673988154,0.2915981410246177,0.29930358663066114,0.2952773783685542,0.3053469066725341,0.3080160695358598,0.2985910492138279,0.29644710708333444,0.304323325176487,0.3002665353557364,0.3149429609843844,0.2995225265378172,0.29502166504661276,0.29001309447482976,0.2999062339742854,0.28966871286188034,0.30033603452784047,0.2898265927836574,0.2856314380968982,0.2905680959367557,0.28965954397591887,0.3108620264368751,0.2902464303774023,0.30374606307384905,0.31068611023765574,0.30223763956240274,0.2918353263252924,0.2901855418898808,0.2983778319204332,0.3074926863867217,0.2977574806946446,0.29241182799706894,0.30271669935726575,0.3133786269101681,0.2859536338184309,0.3227525939436954,0.3052952708822334,0.292010195586463,0.30653403886271413,0.2960895453571284,0.29762672526180595,0.294846162100276,0.28975593571485786,0.3015797641558452,0.3032666427724055,0.30043929040840023,0.3043303916047905,0.3120344399130628,0.28922794583680855,0.31556327886968705,0.3086936142379727,0.29593939760264565,0.32090360585849165,0.29182417976129205,0.3211638757975745,0.3022529637650484,0.3299314580795238,0.3277365108284663,0.31474436926429494,0.3111570004527519,0.3077364572009623,0.3099705745820599,0.29868587654561496,0.2966406510189052,0.33190629867263194,0.2898613092305157,0.30131798012022637,0.30354156060514703,0.29272540620435955,0.3051283773840614,0.2928560975972113,0.30095524465102924,0.30494527469411314,0.29477958394968706,0.29167106167306767,0.31510085465429766,0.31933497737680155,0.3008084810045616,0.2866380177509641,0.30617413511389746,0.30582597762789965,0.3096730081523912,0.3199931993510269,0.3055975372772471,0.3007273611382011,0.29573425199219217,0.30284862927846135,0.286875677845662,0.29530182726346493,0.3171550620331018,0.29122176431259866,0.3015674212807386,0.29928000759845685,0.29090293741979917,0.29274199927821665,0.29624440143380704,0.28921802308352673,0.301779628634523,0.290188124083879,0.28518764956254383,0.2928032918953273,0.304092157589791,0.287149035667104,0.3135873272801187,0.2885125091298174,0.29880121236197016,0.29960175033104364,0.2939731503902542,0.3121151782414438,0.2915811616224596,0.30066173356052905,0.28831703241494056,0.2893361722046264,0.29223066830448347,0.29675800351387316,0.29386898437593245,0.3053468874056376,0.31747698950852554,0.2968838611549678,0.29468486580281733,0.3040173438655817,0.2834778123637621,0.30433828906054117,0.29366655025904354,0.2943858303215434,0.30538775616313935,0.2981536959056156,0.30845512302036593,0.28839259734769207,0.31487321272482893,0.2980993163342666,0.2953452863274261,0.304347321740019,0.2912294330734966,0.29027705710584845,0.3034795504153708,0.3209836817047472,0.3095035691279503,0.2955020207763116,0.2921658631770661,0.29133506861636616,0.2928116933415127,0.28961685439303303,0.296225961269397,0.3035756805131419,0.29484453317924825,0.29314803630028713,0.29178890404709174,0.31136085984548856,0.29310276875457075,0.29704999191976017,0.3091854182618847,0.306807757285257,0.2921283825328998,0.2950450865760625,0.3115818400073848,0.2911961155409883,0.29995856887397915,0.2991177947195264,0.3171831426425388,0.31044043660712173,0.2913945931943666,0.28929464736650845,0.29155710598148643,0.29596014851813385,0.2936681572386145,0.30014192097501124,0.3063412265964736,0.3008744170821296,0.29888029353158674,0.2971311980661596,0.28555369824313315,0.29770701536567257,0.3091346696501051,0.3061798090793292,0.29347541553960466,0.2984972975503127,0.29870675030162447,0.2932794861059683,0.2865837475374283,0.30898494303633856,0.2977554797444706,0.2889102563733274,0.28862431829759017,0.2938345937735257,0.3025849862080324,0.2975069806620388,0.30986809651171654,0.3348385999216758,0.30685348089854847,0.3184296672062464,0.3035301701622975,0.3065472166890409,0.29194985425441017,0.2843472205983284,0.30166976893791186,0.3128135925898513,0.28217713523661403,0.30088469244331134,0.2864676372318048,0.29720513491168987,0.3007836632661246,0.3087505761787292,0.30729022385443533,0.290177130424654,0.32177515287291064,0.291668704471434,0.30560889515424916,0.2933418025584336,0.31176467134327335,0.3124453835715972,0.2938769095738824,0.28592066932142246,0.3096981531537971,0.30305185610048346,0.2900025469658623,0.31682832952897555,0.3371610091671729,0.29068895125142136,0.28727148279796616,0.2937054973159393,0.28937341647587816,0.3066914356317287,0.29687381214443165,0.31314165625584345,0.29280521508615176,0.3026144383816226,0.3033731244104697,0.3116766075338628,0.3018715495629728,0.2928200407316437,0.30966133561007486,0.28671651812910576,0.2950690251467851,0.30599011622735645,0.3096283659251834,0.3055651384789743,0.2942004842518842,0.30812178602283075,0.2870428501298184,0.30761591564555113,0.29216687756839455,0.3002152456926518,0.29406339780661744,0.30190507076993933,0.3001962933128052,0.2975739756787575,0.3139455198936025,0.30057027339176445,0.32029916329019625,0.28708069740785436,0.3002528000046575,0.3091679754837943,0.29070522938322624,0.3023057536457851,0.30039335408756696,0.32327977832035437,0.30096069773024275,0.293295490804477,0.28924010918270604,0.29186604055957577,0.2965690077807156,0.290821418714673,0.28631799292648186,0.2978695023984031,0.30473211003916184,0.2937644256750814,0.3034350350499764,0.2938221259020747,0.3061944599724175,0.2921581953221839,0.3037520400389974,0.3118716996049128,0.3002166869159085,0.3012860216396521,0.30343437942379153,0.28845900780515943,0.31103683505629887,0.30318432468551093,0.3134649318594097,0.288461251211115,0.30125449401329324,0.300601346073913,0.28814493642490574,0.29255991203045806,0.2991514313072292,0.29853190228371995,0.3116379799665815,0.3102527231458371,0.29561942951764,0.3026543647657941,0.29615910626645264,0.33330462291348056,0.30530057003204175,0.3126328689027741,0.2901478752093383,0.28634355561177427,0.30257701998526243,0.29421058925230703,0.3045056397718765,0.31496923107103,0.28928384443718314,0.30627310340440217,0.29314146221185017,0.2907700235082181,0.30011884855745885,0.2864629503973849,0.30435134504255823,0.30133197810871454,0.2904311874177027,0.3029311407692706,0.2924275541683987,0.31125573078013585,0.2884475132851595,0.3136427490963528,0.2966961218760551,0.29063397642596306,0.29988621343984123,0.2893068666072542,0.30895189932525235,0.31260042168420143,0.29112457673151987,0.30784854081114676,0.29377704946434346,0.30780693368859907,0.2928946389927703,0.3071328870702835,0.2965603783485162,0.28834791615896727,0.306578082005876,0.30223807945590797,0.29936277852639254,0.2967333645245143,0.30150322912487104,0.285818714148544,0.29915420881149846,0.29960409770269725,0.3040175635876963,0.3209716710608033,0.28750489476582197,0.28607112543723057,0.2917991494950728,0.2910725378526726,0.3051286730039734,0.2904644325809434,0.2986951393849769,0.2973374937513224,0.3006697407066993,0.30936623960299897,0.3050551173010906,0.31757713673519083,0.31964088074731445,0.30200655332701154,0.29285091297550336,0.3219647118083889,0.2919800340342938,0.2947425754922277,0.29081664689583114,0.29162120166370276,0.3138259099326468,0.30404377819651296,0.2875118393636753,0.28572107262190233,0.2982569047493883,0.2976108730187677,0.30266655714846136,0.2899421981823915,0.28630631148149116,0.29498648595251564,0.3204272706623586,0.2930107443877407,0.3119150415267671,0.2982550027544946,0.3004664609659953,0.30476219086737716,0.32290500187629395,0.3083565585288787,0.2863408669345202,0.3069419744407774,0.30062792136313937,0.28931283100424343,0.294547860314798,0.2958087665966808,0.28990279909756306,0.29079479456502666,0.2918816377744049,0.3043637649076743,0.32181571562873634,0.2941467706339188,0.3074380362424562,0.2973794570774514,0.3000803633879559,0.28373075961664773,0.2969780956764646,0.2857962111015207,0.35817900980159256,0.30524606928465275,0.29453900219321094,0.29135622754838836,0.2898616330662234,0.29371991494005434,0.3103993327955273,0.29466446844740946,0.2882269627530119,0.32011035074120386,0.310541079204899,0.31540114919185175,0.29345460583859967,0.3000269767216858,0.28840518893614014,0.29623775236020977,0.2982686405488231,0.3010893721051323,0.29431698910827375,0.30578791952598794,0.2942375367434521,0.3460633776964608,0.2906057112457896
2,0.2950847184825283,0.30371047437513005,0.29997958537183134,0.29623627633690336,0.2951407777721308,0.2928677660643536,0.305372365472402,0.3388809403965491,0.3097242669860511,0.3126998270808924,0.30414194561288455,0.3068195958856815,0.29865113730364523,0.3208995169185203,0.28993637640495706,0.30551157902145837,0.29240159512870767,0.30101985891168875,0.29833351321870705,0.325759808481798,0.31497987665857263,0.28887549479961,0.3159843069575555,0.29766396086347024,0.2995214397630331,0.29952910214614376,0.288878057012182,0.2991881984814103,0.2978863892428,0.33036602534816156,0.2988475262906675,0.30254436775024107,0.29662461156657216,0.2953892771002459,0.3086181137757275,0.2981015557091251,0.3017457145480214,0.2946542628287594,0.3125208692449598,0.3139887549249506,0.2981624327424509,0.2965374783359577,0.29285436475566573,0.2950376184129196,0.31262312659297764,0.30473462417428804,0.28442014866445653,0.3034817424563275,0.2975850608480993,0.3024347165298969,0.28681609185240636,0.314125254962668,0.3035157292312107,0.30668212911737236,0.30626969272244053,0.29047902247939783,0.3194123970003245,0.3161391708402753,0.2989229855548149,0.28658482510245087,0.2983832634178761,0.3030339401887936,0.2923372266631206,0.3020033483684765,0.29446609905120547,0.3015865150013574,0.29464377863842245,0.3077608117708023,0.2878810915771331,0.30538540630266586,0.30483439358237097,0.30489045712590873,0.30949991339663796,0.3050348019267318,0.29022128700716154,0.30401164629312943,0.29577184530925055,0.33967912198083483,0.2925264704603956,0.29444934167230435,0.29327873083294687,0.3075055089163094,0.29321822154846194,0.30648872718397585,0.3192367613707574,0.29504577429453643,0.30115212490291116,0.30414296236638616,0.29587614964806896,0.3065826691400692,0.29309420462565877,0.2934224525321327,0.31046311918492264,0.29549884960270295,0.2901845823306308,0.30169223613530016,0.30215086549620807,0.3007767473967503,0.29072456819978376,0.2923559339306109,0.30790083980339805,0.2978916804529246,0.2992524053944233,0.3127332627644942,0.28878233549240406,0.31210300038478894,0.2914673612833729,0.29554045387575273,0.29764252197535956,0.2959054350088084,0.29031015988038267,0.3199607811045787,0.31582535421055463,0.30046729333746863,0.31075847021769254,0.29588545051301635,0.2940172426665066,0.3020811769434707,0.3104497462703376,0.2983073831987427,0.30663464950978503,0.28508525137237567,0.2965938072060257,0.29718470487347654,0.30421036094494935,0.3046121404898152,0.3022103009336797,0.29827082946618083,0.31476692385351657,0.311861242740746,0.28644497721394246,0.34415564713137836,0.2898072726499327,0.2974234134125142,0.3242680423714463,0.2903520192271795,0.304054667639578,0.2856848919429357,0.2921024226486518,0.31255551053073305,0.29593920064250634,0.31462840986049456,0.31642434958010773,0.34408846220631484,0.2973982373621823,0.3049887616320649,0.3115761862796669,0.3052341213412188,0.2938503901579523,0.2890407323888623,0.2921809275440923,0.2953701939885154,0.3195774186705635,0.2882374610326338,0.29830049936354824,0.3027552640368535,0.29454231764075195,0.3241656996581778,0.33279952102589216,0.3014927251741309,0.3109582955631956,0.2929724702582347,0.2996924561161041,0.32160357919095506,0.3116980105919077,0.2905651803242148,0.2986424117778151,0.2938376302894268,0.30723619013219344,0.3023527470183974,0.30470513032772667,0.29906704426117126,0.29650969031928687,0.2852540626021654,0.2984696475348642,0.29792253178474043,0.3084624480596351,0.2850759281558118,0.28994633428835065,0.29586948530674373,0.2929489576719939,0.2974397433411879,0.3018875429498254,0.31613861015415345,0.3026778634565418,0.29609086695593717,0.2866684846887448,0.2979291979290717,0.29151973569176637,0.29356035887789456,0.29807082275696134,0.29874348252669,0.3069064228237179,0.2923982572311201,0.2937887439419103,0.2953399703826839,0.28633309236752924,0.29465277892132413,0.2990380781808027,0.30665386805292877,0.2984206610151217,0.29245570046819414,0.2903102577576834,0.2880019775583561,0.30011538955017064,0.29860156666413723,0.29712290896308086,0.30306669453150425,0.30338527606385174,0.2917981905042297,0.2996721566796495,0.3203802638386262,0.29745946740350815,0.2926537145499549,0.2960455451792309,0.29912287404314075,0.29168406623638965,0.3004263662136219,0.2982583047142937,0.3080960870721835,0.2951477863448877,0.28746221568093727,0.2937545139316243,0.3067945381401189,0.2970680630371385,0.2963607808004388,0.2958977141535836,0.2991462006163048,0.30327434934599223,0.3024976188291612,0.295325450551697,0.2922082263716155,0.3019083408055607,0.28635079076641534,0.2994706362367808,0.2983714784959707,0.29875134284028537,0.32621744754444115,0.3164587679532846,0.29561238949074403,0.2898784042053569,0.31931234346592774,0.31056262602359724,0.29508551651113324,0.2921692561424438,0.29690295169542535,0.28978183145007275,0.2979109547455244,0.2903354997983728,0.2904702692082956,0.299153896693166,0.30312971702557884,0.2936396267320979,0.2954430139044096,0.29037738869024476,0.2945569628737359,0.2958921015995283,0.2875013493109493,0.2898663470661015,0.30235580154262803,0.29866060890114154,0.29338089185122046,0.29575529475369516,0.29003893798504393,0.29517015899480376,0.3164061274929123,0.3026210877648876,0.30253640090716577,0.2917322152054723,0.3269590185137358,0.3024874793987552,0.29726906568133515,0.3086230988798398,0.28813771335286986,0.2950264413662759,0.32327785014440374,0.2954110613396536,0.29201750592622366,0.2926169904586448,0.2956213616110164,0.30576409481078076,0.29242597343467935,0.29313291808396025,0.32537150017092087,0.3107436997091613,0.30045068792078716,0.2869609097599465,0.3107747241952097,0.29866888887048154,0.3005937376155008,0.30338200106773106,0.3087167617115415,0.29229534468559176,0.289698153765084,0.2919955133107752,0.28982344686713907,0.297440046375324,0.3160929667217725,0.30413231737230545,0.3287961652642864,0.2873729689351963,0.29943660073899364,0.3008896287870718,0.29567611465652927,0.31478412896435193,0.2941152862171808,0.293546377292625,0.31445694224468596,0.29383897314227325,0.3056351558618192,0.30692899199736773,0.3069161034451855,0.2958466959559085,0.2899021065861448,0.3086429886672497,0.304057805660392,0.29343854330530605,0.2947550354927321,0.3071418651380203,0.2941996186136798,0.2880711078900728,0.29179547390019145,0.29691943725627723,0.28756873749357525,0.29311896977604557,0.2889636996017197,0.3139818614741631,0.30963604708116393,0.2839277404128164,0.30981598303192,0.29511345242054465,0.2966263527469376,0.29607294986495714,0.2942330316953145,0.3043319290349507,0.3107213606755155,0.29542290467878,0.3082067311175435,0.29906124608239604,0.29536492314196866,0.2847720109510742,0.2895054322437099,0.2984705423835915,0.2935466864494839,0.30022840126415967,0.2887298356639856,0.29932014771580334,0.2951440497921597,0.2911687687248644,0.30173542064203146,0.30711414076712906,0.3017872942540666,0.3119691786974615,0.2961772491038096,0.30713093732569874,0.3119136462264572,0.2919505381732947,0.2949823863351614,0.2879250337870933,0.30357625716982717,0.294169353575192,0.29418903679056985,0.28675716155230696,0.28625241298310433,0.32621928368508774,0.29709457351451274,0.2959374288964157,0.29360200537332737,0.2972693659538702,0.29806196343566527,0.31352007677920507,0.30761109221047617,0.2944346731249836,0.2960988812419064,0.3102007086850834,0.2980270418955517,0.3234955144478156,0.2941605651760071,0.3054387578154981,0.3150903514549367,0.29185495364687497,0.31023332490399164,0.29359956320980246,0.31158483144678284,0.3019661353115545,0.29525699631775554,0.31439092269374364,0.2888167356286413,0.29297563367560786,0.29626844205104874,0.30293275083626386,0.3094188137833388,0.3041757217222975,0.29133064279732823,0.2991596737070995,0.29744756111542203,0.30966588119015126,0.30672284601744243,0.2942942336984736,0.3095669163342052,0.296994349853644,0.289833120637354,0.29981450548652017,0.2898162046216748,0.29394565691618346,0.3076387181403177,0.3044212741329374,0.2884674907726262,0.294741088832318,0.30277272626078655,0.28629515022735985,0.301442619248919,0.3061621014314272,0.29427451774972835,0.3018029920180476,0.30912426957939126,0.2948100538802196,0.29559766385198855,0.3047599150993402,0.3001300493432377,0.3035891476945422,0.29521292949909606,0.28573405055339685,0.2947238544142056,0.3053644533131576,0.31767341839341195,0.3074558561237929,0.29287949140017366,0.3042816466135353,0.2931693132201327,0.2913865821790786,0.327542435601169,0.2995972167164198,0.2853575167769029,0.2895621102129414,0.2957333516386821,0.3145437356124848,0.30999488378782736,0.2987633003437983,0.28541547059816924,0.2968360025744773,0.2952239432017469,0.31188618735656615,0.2956489837418572,0.3040750582564432,0.297273464445858,0.3104695183949858,0.3046504657785861,0.32192721908834165,0.28664942066860793,0.30072365156141967,0.30793501910655524,0.3014204952563512,0.2999038796084007,0.30982108022123905,0.3116861061704232,0.3152080179672165,0.2995969548091938,0.28673007460751126,0.33178391843252986,0.30338018696843505,0.29108234694763624,0.2980752995731476,0.30000405430154364,0.3029664087319416,0.3026840945973418,0.30195862699106646,0.2896720149489119,0.2931902245282536,0.3078754238163699,0.3080270929694398,0.3442662029378626,0.3470364731130563,0.2971808482556838,0.29270274992767004,0.30062783851518216,0.290719488215626,0.2859947234427492,0.2938028851485606,0.29594496116662683,0.29059373147511336,0.2913317659849147,0.29075299161816087,0.32873619367075857,0.2968271922125706,0.3021371320325091,0.306001065178567,0.30612581583841597,0.292348109243591,0.2891551477588478,0.3041262787725288,0.29814402544208857,0.288274037155565,0.3093605440802552,0.2902812506310143,0.3070280445992454,0.29750881332435675,0.2952845653622109,0.2895314645765203,0.294159397644303
3,0.28986105698295794,0.30318640204370995,0.3084549400396282,0.29289138943158866,0.2978102096920969,0.28917318378580803,0.28597013252304604,0.31834739092822806,0.3040329979320803,0.3155430184705619,0.2981690422391271,0.29485606916137524,0.28970961216292196,0.2951111739700278,0.29526891722231563,0.2852349549745933,0.29846247327715736,0.31515344488453295,0.2929568059461662,0.30060207004085127,0.3010770269000887,0.3045392184474703,0.29373362147205334,0.31023423610631595,0.31331045140080677,0.32239363389140774,0.29286963273969874,0.3013472651772099,0.30956815670508386,0.3018512289463176,0.2980375332553139,0.29019919953068773,0.3057353836412341,0.2860440168953777,0.31720940971936396,0.3009443828708719,0.2915352915524799,0.30531471933349763,0.28890803683328026,0.29049870136095807,0.29695550893509737,0.2922486087530433,0.3041141685661695,0.29737163489951984,0.29393261630322376,0.2943281655027283,0.3107455580161869,0.2892613212197143,0.2932507402350454,0.29967560219452394,0.2941145533992965,0.29724748483600877,0.304749805220767,0.30078419099192866,0.2947200602427748,0.2994641821542316,0.2914235228219948,0.29840246859876723,0.2920909164535087,0.297449149094508,0.29470490760207424,0.29509600632526994,0.28918074751250217,0.29190693902861836,0.2888617726240555,0.30224681674295856,0.29347779425264087,0.31248809915685566,0.29275581653320126,0.30618461688370113,0.2940227454112699,0.29515156648193314,0.30551991934929357,0.29655208904882363,0.2985229099090055,0.298395901624406,0.2952630259773135,0.30231294086758614,0.29018069938245306,0.2971644965610098,0.2855968007692573,0.301135832433637,0.2913258768393257,0.3036234054053006,0.2953863228163115,0.30145815179368535,0.3044377101433257,0.2908566746899644,0.2920305358134371,0.30982052338425703,0.3002353753671986,0.288595121416065,0.29167600320872317,0.3073548972059803,0.28858609827582443,0.3030498188806931,0.30714446166788506,0.2927220983689903,0.29671023873346686,0.296973728373859,0.2981079654130828,0.31674296316347916,0.2948107755585214,0.2952407036028732,0.3012353118590624,0.2927675981827934,0.30980993464346995,0.32556795553160417,0.2881606230883528,0.3039211618419709,0.3014682812592717,0.33349876471521916,0.2976650112896889,0.2932237162312662,0.2967094040541492,0.30491043345123947,0.297598441667012,0.2905506379832222,0.2987219724961333,0.2989669781149301,0.30136820213588306,0.29010307111578676,0.2948150780597869,0.29783314695165475,0.297785572767176,0.291552388033913,0.30400189547321177,0.29503876348239616,0.28909158320031714,0.3049155034252932,0.2990940897896174,0.31254168759386725,0.2939507558872825,0.29575515070564273,0.2935705401824684,0.28937218175968377,0.28356017263866645,0.289176198079354,0.3113749390066483,0.30394389525754184,0.2931329597172442,0.31093252985363756,0.30415459825584823,0.3152041084713147,0.29199451437740803,0.29616504026203194,0.3042620220350209,0.2934530028938076,0.3206221002483224,0.2960185153363539,0.2992828334933371,0.2958200794365483,0.2933028936818266,0.3024070849384266,0.30582427370424303,0.30013357864514106,0.2895306349767364,0.288055942448324,0.34152989630457914,0.28828731223072207,0.29640211575073516,0.2906364981713896,0.30348130960514175,0.3068695061860102,0.3009956725705939,0.294706775527995,0.29346431929255457,0.30078758279146606,0.2906253322408991,0.2886022902627298,0.3107261916458995,0.287181256564014,0.3064981955550893,0.30371434520462165,0.305473025748695,0.2975000602236973,0.2966621867457443,0.29102847162624157,0.2976517965767596,0.29487389994781654,0.2978269997386266,0.2972150766228035,0.3085625628717084,0.3163820104030617,0.29936598297783157,0.29986621550436415,0.3138339623943403,0.29693893155677126,0.2887785454551955,0.29199190564326427,0.2945952976348588,0.32069859850314464,0.30100642538019157,0.3051251757764328,0.30558387557839667,0.32185360303430743,0.30021771824497,0.29462528737148863,0.29373384372192657,0.3067110907603675,0.30132957228407903,0.30608931857572547,0.30375703495669215,0.2972840102904136,0.2908162841316981,0.291665581420919,0.2939494238891097,0.29645222876011046,0.29494683666730964,0.29977463686705946,0.2986192487058929,0.3389226276078222,0.2998345660698787,0.29802436222787915,0.3033603020939343,0.2964423265841081,0.29082862865592757,0.29293176604165255,0.29635589895382386,0.2950122248578876,0.30796071574877026,0.2990433159521848,0.3128128371289602,0.2915180293873671,0.2898776699224007,0.28927465361069127,0.2990368414217213,0.29346015279729304,0.297908993247521,0.28779579743196787,0.30222930658353075,0.30421384083394376,0.35262138922921205,0.30013691764157246,0.30024495969923864,0.29263851011522113,0.2978436410210717,0.29071861698392654,0.30204879515315153,0.29018673400679545,0.3208090149496605,0.30367015941289593,0.28690052957658096,0.31360175823942416,0.29349287484114683,0.32608861936180067,0.30703027738092936,0.3094081818925948,0.2963666683962892,0.29716425230036825,0.30577538710099594,0.3089301783964509,0.29969543084065525,0.30603038798752136,0.3051636017636786,0.3015317224318309,0.31446746385272595,0.29148019315981566,0.31133459259401536,0.298335389903396,0.2873219334488262,0.29955290236340204,0.30368575547300414,0.3109943146330511,0.2833720817134139,0.334912101914546,0.3052734086042959,0.30218432796955386,0.2916340161230408,0.3073928220900077,0.30230219803449543,0.2964419056727255,0.2992641396501717,0.2974153731278701,0.29562112727988177,0.310670453901828,0.29575248628494116,0.29856285428222923,0.29550382080330506,0.2922735498113488,0.28961347747442945,0.30006984601394493,0.286286246517582,0.306381111039971,0.3019760409525121,0.2983304702864027,0.28745484465078364,0.2998778396239373,0.2927643864387936,0.2852805626997558,0.3013035388808899,0.3014746284087432,0.29541974583995717,0.29643009046082863,0.3028315717724529,0.28678345223815416,0.29546976328340213,0.2956077019368071,0.2983011788967619,0.2904497205006681,0.2943079101429092,0.28678075942999476,0.2912947486150482,0.3185582170607063,0.30205333548554264,0.2952741430171445,0.30684250219577186,0.2943661470388429,0.3201414744584668,0.31095207417859594,0.3034444860121693,0.2943174800827273,0.2990584576156049,0.30056304497992076,0.31817021197949086,0.3090421803906202,0.29614904674285264,0.29865102704161944,0.2943107297684625,0.29479571529432935,0.2998359231580496,0.28794715842264335,0.30745317955016904,0.30413895031175264,0.30733581252200165,0.30282889663525925,0.3012668591724202,0.30803030766902395,0.2962636852344144,0.2922253869029945,0.325258208620668,0.29914438488815553,0.2931630184567998,0.32211655968484265,0.3137899381290549,0.29977348149139915,0.30075890638956576,0.2890417248974086,0.3028475571362087,0.32754222131739075,0.2926775245364698,0.28721241742125847,0.3139861836770955,0.29742176299150475,0.28783307109677814,0.30221525881434624,0.30509345283515954,0.2902894321675401,0.30572476947925387,0.3260889371412813,0.2946445922696189,0.3111664417158829,0.30556943623393634,0.29857346327091205,0.31113151491345564,0.30669168479916564,0.286076416567985,0.2958282145738921,0.2905226338261814,0.2959428017587451,0.2944848581721711,0.2977896647886783,0.2957704664298123,0.29418718924484255,0.3044816192038527,0.2847219443697123,0.2939055221653499,0.30297332573800095,0.30291346247901674,0.3089795342980554,0.30994194478305886,0.3138228183887223,0.2954375179034531,0.2943951471533184,0.2999688485193738,0.30513665449666705,0.30724356550855797,0.2944709311850064,0.30626552765457826,0.2903175730878587,0.309093461827351,0.2988815875467462,0.31078228409092745,0.29230897962466124,0.28853120041531766,0.2885313836103093,0.2989834180792534,0.2989358397620576,0.30363866507317494,0.30985849015910394,0.2927231896660213,0.29481042769563787,0.3005292801641295,0.2987627023337687,0.29369015631339346,0.29523497744636973,0.31721481227103615,0.30400580629067964,0.3056578963265588,0.30269950589625005,0.3067470807393964,0.296121290086466,0.2958105182031853,0.3066941928434558,0.3121887944508774,0.29514643287338965,0.3067086680415504,0.3011165921138533,0.2913289868740548,0.28514301756851346,0.29000265995150054,0.29233558026331774,0.28772270471440564,0.306417579607509,0.3052998128822272,0.2959110446710952,0.292362249011893,0.30341125076899,0.3089026749870327,0.2940385447693335,0.295673775779449,0.2892220249071966,0.2996700269611,0.2905068475576491,0.325194051117779,0.32100486981863635,0.29326098442588167,0.2935354077733962,0.2906621765609906,0.3213445923430557,0.29767391287364,0.3183211205714709,0.2931190956720822,0.29581315732897295,0.30598007782025693,0.28470154894237315,0.31352157858344476,0.2815748854763294,0.2880043479135569,0.2938801539766559,0.289192611451511,0.30535005888294825,0.3069411533054325,0.295656297854459,0.3245790105316977,0.3084518489687179,0.3115375471634486,0.30860497450327296,0.30199133372801634,0.2998493491120526,0.31625700192776074,0.2973812693320611,0.2934149222222074,0.3055692984852052,0.3077279185639961,0.2998573951484157,0.3062202482827425,0.3041580753311234,0.289464232601413,0.30109409739553533,0.3049825404008598,0.28692318566729574,0.30691340713464904,0.31036129044787397,0.3021697089684515,0.2968724794356795,0.30880766915674773,0.30709003754183445,0.30597328146759295,0.2901026482676198,0.2904694148530379,0.3042793444867329,0.2903721862236653,0.28910826992625427,0.29656682416293223,0.2965823379644118,0.2973235112874476,0.3107482939135459,0.2899302378526269,0.2895785955620929,0.2908415115791307,0.2918603801736502,0.29771021317236623,0.3338350174308141,0.29367452138318956,0.29546066737850757,0.32342975336643787,0.3062554190067024,0.32562610491020144,0.3062726524827729,0.29581600316723333,0.2916900678229273,0.29069671499492883,0.3213705354110895,0.29765662495800493,0.32031397654969773,0.292719102446464,0.2855837978773961,0.2964856749640072,0.29108179817179375
4,0.29851139778346314,0.2940384265931756,0.3028933242494561,0.2893349076774313,0.3103504768522673,0.2882255097450453,0.30862087409421435,0.319466449828682,0.29050322923867067,0.3117254394533937,0.3047789922026124,0.29465640683098465,0.3025543511596353,0.28844439920643716,0.2915954950156775,0.2967084053096273,0.30828557948415125,0.3023806401950657,0.2984096202422452,0.3186465753458581,0.3109277702361655,0.32803303540202366,0.29668278460648634,0.3080527496076762,0.30505314147310936,0.3137566555309893,0.2972985436988834,0.29081671269871057,0.299866342606823,0.3095122772491839,0.29270718863561995,0.3436278465196375,0.3302772178198651,0.29374900883198063,0.30268085434696923,0.2931309620736416,0.2994912268201312,0.32068871169961566,0.2951258481621054,0.2912019140987155,0.308678024667003,0.29870424446575794,0.29893910238802335,0.2922489293079319,0.2887066590555967,0.2962424806583092,0.311656160365669,0.2992666233613513,0.2919354248254483,0.2887675973710285,0.3010939285210728,0.2909578875230726,0.28995164640377424,0.303068694458068,0.299607310701688,0.3064238634863662,0.2926779912220184,0.28934953621003173,0.30842394875629525,0.3745833013004779,0.285446057455625,0.2959044676974931,0.28656732597608237,0.2961392530592658,0.2961833339888081,0.2980594086203684,0.3002909192021197,0.30162135815814184,0.29432424362016246,0.3005891945940258,0.31065983366578775,0.30312003162178985,0.3032640241501816,0.30460692822920593,0.29042378925141665,0.30629966828429406,0.2923991644569706,0.30472914434595866,0.29007586873078967,0.30862613014807255,0.28406715480139194,0.296133976443803,0.28645565296956493,0.29840669902876193,0.29618872322979856,0.2969505243560597,0.28795643274089455,0.3015887518510313,0.29194572193303536,0.2896374952687172,0.29372441763047696,0.2942362335670512,0.29795958228931985,0.31796089453249154,0.28558795024372047,0.30847028708870555,0.3059487093094571,0.28723024438138545,0.2978217049804516,0.29251726831853425,0.30644256818656046,0.28801227231826115,0.2912265250997489,0.29705973566769023,0.2877320619603748,0.29594258970011433,0.32394442802958434,0.2948109873531114,0.2993530036891352,0.3145215151200274,0.2973608098334755,0.3141412592053114,0.2930709430516854,0.3041481435695989,0.28810099951964674,0.3038798636821699,0.2986385699775038,0.3029118903131166,0.3251275964211583,0.3048294220316297,0.33003357715502674,0.2887604288190825,0.28503479919414926,0.30387000083296895,0.3012009819082126,0.2912480140529683,0.2949339886912741,0.29452312614511,0.307205201312895,0.3029004783650751,0.29414525295355093,0.3039805153345435,0.2939007804495753,0.300003402634591,0.3285169780230775,0.30635206560491496,0.2874051349305865,0.3072870218638954,0.29085474231113556,0.30770276577032907,0.30633989383785953,0.30275758087382176,0.29546103198251145,0.2920811663001521,0.30201338056458077,0.30320298838941945,0.31153364450062343,0.3140676682212776,0.29470965961652473,0.29223678199631775,0.3122054813398834,0.29762852859990235,0.2922397443389117,0.2937987108140241,0.28964350044266546,0.2953091323567835,0.281165167742362,0.29868474143220247,0.3041512238781118,0.3017685947028611,0.29610101407727935,0.30538034328700114,0.2898295813459762,0.29416868518030725,0.30698500567273135,0.29667384083991855,0.32551994489249353,0.30018451039953764,0.2997756481926135,0.30105004796735424,0.29712596823099735,0.3033698325968873,0.3328459661860207,0.30272838166861804,0.3211543581547297,0.3006357725375993,0.3028454245321494,0.28581351042600056,0.29867436595006897,0.29193164223305856,0.2987097413402996,0.30273954862499963,0.3127922292709463,0.29290130924970936,0.307625541897135,0.2914605232111552,0.2960960429571661,0.29966795103427013,0.2872623104014641,0.2954575088090805,0.29557784926930186,0.29129809884976277,0.2956873628078162,0.29061289560507814,0.2905500818298502,0.29555496123585856,0.286493464212272,0.3051599735902396,0.2938894219176743,0.30690680555507494,0.31375251737751697,0.29631523663122195,0.3116860861448067,0.2970431978828151,0.2962686671481873,0.29771278480501506,0.29572217574622445,0.2989808493134097,0.301142028620076,0.292803358028479,0.29011809705411196,0.31126160645269196,0.3010610500855325,0.28977794415892066,0.3051166435182977,0.2941026556061067,0.2974638713043496,0.30520692973659547,0.2967459382644272,0.30263177813588493,0.30600393239492674,0.29865073082099713,0.30040120731166714,0.31697052400370634,0.2997838912616565,0.2946152533067449,0.2916630738272159,0.3033438945404947,0.29729528635053,0.2840493188206848,0.3019165933794757,0.2938830748964922,0.30496478609026645,0.3001772120185956,0.2932714407739868,0.2935927803048687,0.3030667938684395,0.2978180185528788,0.29990791546942847,0.3042918347560235,0.3024111160476965,0.29584034900773903,0.30360363250951883,0.29364094718856293,0.29824536724865464,0.3121513682495955,0.29363579154140396,0.29528174807795804,0.2991636029350996,0.2896704063310883,0.30843426998458506,0.2927055588560366,0.3075305391758161,0.2953376284539729,0.28873035232050503,0.30122693546986756,0.30579206646748763,0.33208279294712983,0.2895111763659298,0.289201328584798,0.2863542110751369,0.309399716147609,0.30451247106611284,0.308488180227802,0.3021600608703063,0.30929591522632294,0.29424583722373054,0.31183393732813613,0.289336915722982,0.3293590918715337,0.3094913259380727,0.30214314987814184,0.2931514105422384,0.3010026624731591,0.29650970656264647,0.34253425178771024,0.2891365340057691,0.3030806088440059,0.29931665203285684,0.29220745377572294,0.2964563404509632,0.286149980260313,0.289557522058904,0.3071248945243339,0.31088804413346877,0.3235801661667444,0.2919920104131654,0.30411864331030025,0.2889334381678853,0.2893025958640122,0.30778579632202485,0.3029720680098294,0.2884941461458843,0.28834926448168624,0.3037099227047332,0.3021172485405048,0.3013976386529823,0.2899523438738211,0.301973263111598,0.289903814261033,0.3068925426110652,0.28495648507483895,0.3053398251175347,0.3060864329277978,0.31194387873750096,0.2932962375993007,0.2937038242568032,0.3116733543181837,0.29476985144640366,0.2984266978721679,0.2967542536919462,0.29276178434106115,0.2949618012146019,0.289220775747605,0.29385485646167475,0.3015480010638485,0.31199062796555455,0.29040309751272153,0.2999119710372917,0.30981857111475364,0.3034151992832726,0.29470571895008196,0.30544825363103,0.29178136434771756,0.3023706767366086,0.2972834344789848,0.309261783914246,0.306036148259875,0.29512565590902307,0.2995772808752484,0.2953258548629446,0.3048072858357584,0.2954095601464429,0.30197846528982353,0.30076947323999603,0.2804329713555759,0.31059105734432374,0.30161194867922025,0.29283554870375034,0.2952749655259567,0.2994421156783226,0.3195958439927057,0.29682861593107884,0.2933479650566957,0.2886334102340839,0.30909412748553855,0.29070391150143876,0.32472621278688113,0.28685881083941667,0.3207524210837026,0.30444416564584903,0.2960376333375795,0.29965614119627393,0.2875252608077517,0.308425788828226,0.2892781391730007,0.29286854128338047,0.30178239943754875,0.2886398038830843,0.28812970309534924,0.2933053860400093,0.2880741361300295,0.3007212600234694,0.2969983658438159,0.29104596559397133,0.28861873155682477,0.300885446325118,0.29937952283524966,0.30890921981746644,0.3104923079522418,0.31213415301617975,0.3003858383901815,0.2999877060763039,0.2904103266102614,0.31472633118192694,0.2981720869359584,0.30023062941652934,0.29515360246469413,0.3061478411993656,0.2954391253927543,0.2997271675657051,0.3113560737337543,0.29587350950108104,0.3013960396885131,0.3047372315505684,0.2915117928712923,0.2970683840633682,0.3134324817901192,0.29653530936385797,0.31072782433862267,0.30100202152572836,0.29444041098069457,0.2899862290948371,0.29487886225800714,0.2977637294040949,0.2981952691924047,0.3050959149972618,0.29954912558536745,0.2948863276068187,0.29911485782887987,0.28833536713356284,0.33630964917234946,0.2916706013903671,0.30292112355715795,0.31232107628503614,0.2877920326612143,0.3010578917819524,0.3073296204812976,0.3014435784883895,0.2922772984047181,0.305356357437477,0.31408487960673176,0.3175677886807896,0.29714878740747386,0.28945419497782937,0.2991388106993461,0.2981124880832338,0.3007255942418826,0.31315242280379574,0.297992876393808,0.2953017123756142,0.29416577114861775,0.3006917555721941,0.29454766375486446,0.29164068053764536,0.29913167464324564,0.2952434826454649,0.2964097020186247,0.3079111933507983,0.2919648673423664,0.2977668295260213,0.2953838153753362,0.2888730428733336,0.30099362950685044,0.3044782820441214,0.29295153829155157,0.3119223323450674,0.3010641495510066,0.2928898338079672,0.29275887993306204,0.2989806686694844,0.3202162861175522,0.283282928048476,0.30550582589144976,0.30405829302740506,0.29873346839437087,0.3027739086439856,0.3123117635213817,0.32337338862235576,0.2881207327199974,0.3030982472130028,0.2939044288807168,0.2914671553142757,0.3043784804041134,0.30145037157002164,0.2908829327686252,0.2975786194801534,0.29411230120313514,0.2972773905992908,0.28524084312391157,0.3173254140405174,0.2885950260789715,0.29980041033265004,0.2835995895869952,0.2991948450877011,0.2924146839346244,0.3185082910341134,0.2907599251142682,0.32310046394106284,0.29575857641524517,0.2884888739773746,0.29875260555336813,0.28846155781575356,0.2885460483719805,0.2853126967190438,0.2962265436207231,0.29490047407197134,0.3035847158764243,0.301965745912797,0.29710518765685856,0.2941823958890236,0.2893423618442469,0.294451914225295,0.2989844759257836,0.28962565684185926,0.2950966813470443,0.2971301512560011,0.2955602988279475,0.3024805592105364,0.28720231461024215,0.2996763314059701,0.292013515956287,0.28870583096421704,0.31805240268616897,0.289188752791732,0.30562344618612297,0.30070315372767,0.295519342796955,0.28708546299365834,0.31091711419687706
5,0.29446925097283205,0.2887824238839719,0.2944702260205758,0.3062483277081334,0.30899706184407366,0.289242924146368,0.3000316669484102,0.29270364438217517,0.3065678492737419,0.3015473660434066,0.2978635321011559,0.2923408485750121,0.292753028071019,0.29197717437244847,0.2864831015878305,0.2944976255279467,0.31304039947511325,0.29692706624356413,0.2951693100578004,0.29307227596369395,0.30034953779566054,0.30703951341448354,0.29333710302120214,0.30275973203115625,0.3127739067541063,0.296876572506302,0.29972098878599934,0.292912645595872,0.29194491097458813,0.3138863283233059,0.32088988293363185,0.2910033290059016,0.2998791707638708,0.3048116127976233,0.30909110980318416,0.29745369167634134,0.29677502412840184,0.31204907211319416,0.29766182790743456,0.2906898860412577,0.30962558277736874,0.29337327556470005,0.3206777680229065,0.2897036588950975,0.2915112718779679,0.3063551636643861,0.3007640272548459,0.29613055851403514,0.29081695681182695,0.3074703058136833,0.2991421962323022,0.30966767375145277,0.29719126822917635,0.3098618966816903,0.302775245046449,0.28765073493454396,0.2928801662123353,0.30447627878204886,0.2935072043724967,0.3422858572792794,0.33751595333434337,0.2974351540433455,0.292581419841225,0.2980611190919205,0.29833102437071535,0.29300692564470904,0.3033803692834286,0.3114347373853288,0.2956258636262263,0.2941349655059097,0.3048440332090062,0.28973067872521296,0.3259642987013112,0.3235982980224571,0.30126111341499556,0.2958938746900024,0.29579069864579444,0.28999146496199907,0.29034570818122496,0.29394332826744657,0.3261721600296258,0.30451152609883847,0.2897341353453318,0.31190477117606563,0.3086464886300748,0.2970924527293528,0.30059896860043434,0.300081583399361,0.2971219795567348,0.2979800091255148,0.3108214552869786,0.3077746386942277,0.3361363907877345,0.3367776070575658,0.3003114553791104,0.29614717015158143,0.3009626154510284,0.2840044017860189,0.2970831675844449,0.3077711063192349,0.30773862124543716,0.29711202748995114,0.2888313330467993,0.2983428914233358,0.2896225471437471,0.2961877124658078,0.28880526620277785,0.2922735761288244,0.28881232354869274,0.28653371237232894,0.30166277278839976,0.3103191613478167,0.2994439837526173,0.2918813461146187,0.29549288225295384,0.3054092162948291,0.2973863698141817,0.29829678198830867,0.2901157993936007,0.3127145989733225,0.3335367971319025,0.3024651094693564,0.30195465448714476,0.2911468415338699,0.3042982299533167,0.2989674442208201,0.30054021758602617,0.29863280450043456,0.31257904439754464,0.3047114392747477,0.29546119667162973,0.30654844746771015,0.2993167553891594,0.2898299568256571,0.3009202769676402,0.2863001982141684,0.2874892112818453,0.2904723111915089,0.3008669049422412,0.29022801800108416,0.2964560390604692,0.3093446855680105,0.2974191265304219,0.336451777298081,0.30399680291135156,0.2922354419819976,0.34178457499605563,0.33404411384381216,0.3022946103964499,0.2939223179109982,0.30166990550201134,0.29583327858286473,0.2929526813183932,0.3023164619417349,0.29169986858229213,0.29176500273794764,0.2991571353870416,0.2852906205597311,0.3068262639227937,0.2957060711356725,0.2990072147838849,0.3192917199713347,0.29878954930383744,0.28897084123294803,0.30678159327872845,0.2938415808643771,0.3102668638921208,0.3017448536626607,0.29669377744364167,0.30457632546134644,0.314446584736764,0.30021449688591495,0.29760343928875427,0.32334822744487257,0.33217282056672215,0.32000432710791077,0.2988277928335323,0.28436825440340774,0.2953738638094242,0.2911757421143756,0.2963783933620522,0.31008979392395286,0.31229046478538625,0.3087004656164645,0.2926316760426403,0.297963971376623,0.299441392132533,0.2980851573245876,0.2890338067569588,0.2911767129367736,0.30849974543361824,0.3017048064672092,0.29879239590455087,0.2923051957027305,0.2879052907685936,0.286858948373575,0.2950869495172832,0.29308867252383364,0.29521674817484544,0.31122197933099377,0.2988692030334355,0.2967985668052379,0.2996228657255201,0.2950139112091685,0.29771253448127843,0.2910828384058487,0.29184253589433734,0.30971258672140684,0.29735673612466457,0.2909308288469238,0.3060477347559889,0.3158501695522248,0.29559275756649633,0.29612701383953305,0.2986017020393806,0.29537632047877393,0.29682663633564305,0.296539992694356,0.2986253328988491,0.29256919960186445,0.30864550762756865,0.2967336768791923,0.30246535977648936,0.3010723252770013,0.2936915345053521,0.29132857722352395,0.2845872637733824,0.3068511735346485,0.30644851746197316,0.28997663205732427,0.2972117096791064,0.2994653646036072,0.3077748491883958,0.29335047729038183,0.29501328099478535,0.28999479726175104,0.3057322823641479,0.3010693314826112,0.3206143071087482,0.28760110093943203,0.28892006907337314,0.309006704250564,0.30367972964996326,0.2937348253586354,0.29299623418361126,0.2959460674909802,0.2932625747080287,0.3050913260799401,0.2915461378710337,0.3024898396758384,0.3014226622721129,0.3038445095868202,0.31963318210887404,0.3026526614593026,0.30315568480043,0.30772388494301867,0.32724331918487776,0.297841490735374,0.29461223445614343,0.3095747449330499,0.2937348669692462,0.2958842007885779,0.3005411930879375,0.3127106415293598,0.2866389836519164,0.2882151830669265,0.3029459128786844,0.2960696807031997,0.29448913053640624,0.3190310240326742,0.2905329207256178,0.2894611533035697,0.30731712250327053,0.30753172176167476,0.29536249951893817,0.307963042016678,0.3004142425429137,0.2997155279830942,0.3050114524913515,0.29119261528453233,0.2970134386287449,0.3042452138964707,0.2923674500062933,0.3134352922746106,0.2904908257064008,0.31549221436875347,0.2859963133191909,0.2987120571071021,0.2900704599736858,0.29625686139356944,0.3196275707364221,0.3250909967764067,0.28832939600442475,0.3024884628806467,0.29805564418782077,0.3050661098029989,0.2895099823094081,0.29467863883694934,0.3126168270302045,0.3008360340360283,0.30961033985089165,0.29640203364276363,0.29055855471680675,0.3217352486523012,0.304300963355599,0.2913815611485794,0.28776307437967386,0.3161343459373999,0.2871053013357609,0.3017460667286463,0.29297800891114945,0.288995355026542,0.2861089070232754,0.3003174706204753,0.3058851570341011,0.3134676278906053,0.2959211888227854,0.2955710256522612,0.2924971519860792,0.2922280817211977,0.2859197004019813,0.29705174007441115,0.29332441403157683,0.29688565947733936,0.30464369331245905,0.3052882599755608,0.30196183441287994,0.3314406813176328,0.3004736754308896,0.3009765228403478,0.3033164793811884,0.30481493162335704,0.2972980459015505,0.2883422565954697,0.2987613002697541,0.2941551404959345,0.29832311813059825,0.29787052248163304,0.28935869978349515,0.2969052669900457,0.29146315897031494,0.29175104859887724,0.3324979214610712,0.295613295489492,0.30451972460285603,0.29044019033672275,0.29758121398464915,0.29956310554040944,0.28852205680499987,0.2927764230044031,0.2923873336293252,0.29075240494017446,0.3000803591928211,0.29428004752426395,0.2926465942199251,0.2931442750136749,0.29969133169512613,0.2948047197103241,0.28136255925016723,0.2912431024757596,0.30396974382587005,0.29837727465149555,0.29906292529905043,0.29231877689305186,0.32817983010281415,0.30263374839971535,0.3133465770094051,0.2952081949852839,0.3094501025570641,0.298885217841426,0.3020120793992664,0.29273531114055057,0.29332862988048036,0.293470331891053,0.35890802799516386,0.2894476945736086,0.3284805295963641,0.29791122421339467,0.2933289304119514,0.303214672005237,0.29809834370595284,0.3153427010616032,0.30353649863248544,0.28565037548084143,0.2860714855549274,0.29667176124759187,0.28708124984583266,0.3019608647897142,0.2996298295996302,0.32487654127331655,0.2913418993237624,0.2962376917280083,0.29216338656485974,0.29398736934726705,0.29921252281711164,0.298132356240144,0.298642229849257,0.30120005178046777,0.31440134528059815,0.3001153814300635,0.2944020488262419,0.3202469617553222,0.29610441863875503,0.30151362735471116,0.3228481466297974,0.29755288166326127,0.3041161069921218,0.31143993075781473,0.3074330393089889,0.29210038263208105,0.2866499716440346,0.2917514194682549,0.30534412207529515,0.2997681845839855,0.318434021172667,0.29691935332860103,0.2950114599867,0.3038643454394947,0.3038991967468775,0.3010855358563296,0.2899724374178402,0.2870423385091504,0.29975675825180265,0.2884957099669573,0.29940388847596433,0.3105764002673611,0.30874236206364636,0.3119454497222992,0.29603266043089066,0.2920284078811851,0.2964977965967203,0.30191503432695577,0.30071099029451326,0.29457604401488763,0.2909532267745485,0.2940790769583144,0.3193744160441132,0.29332508409336167,0.2892399153083557,0.2895877097480181,0.300068118332398,0.32255918233567094,0.2868077653974352,0.28875302271156855,0.31046592824201535,0.28932552724441923,0.2907598962954453,0.30652204762916996,0.2995383261053789,0.2914547166927091,0.3067926926723127,0.3100317385658019,0.29980195252079794,0.2963298031210736,0.3052311615402269,0.30078959353999746,0.301617273628814,0.3073122440163777,0.29417950561451545,0.2914485352225161,0.3103177212004644,0.28956768518039067,0.298971440373692,0.28937049237325047,0.2952012739808438,0.28931286535253525,0.3006864492793292,0.2871440216087483,0.2878617093605444,0.29778462736381267,0.3168176557608805,0.29141697706031705,0.2957646227437992,0.32258123034451397,0.3055920274163878,0.2912937946937625,0.3265974042026849,0.2998034947542098,0.3023584954539094,0.30437598822211986,0.2821635619412476,0.28892835649878273,0.29358749255948174,0.3211713437335687,0.31295454162320985,0.3107878772297535,0.2909878168274224,0.3060256166262384,0.31488848414188825,0.29780768788124296,0.2955461458185451,0.29292386785844815,0.32647610683148287,0.3092629175671809,0.2873870954262282,0.3314124484745675,0.2933600000244049,0.28875172122850373,0.29635837075685456,0.3175372425885611
6,0.3153837411415893,0.2941971548488206,0.3018432473612896,0.2862807405172815,0.3058917177992142,0.2902708889846102,0.29416521455723965,0.30888298270227715,0.2964995464703336,0.32735578039775526,0.30633911022618093,0.3031390797771691,0.3124329673807806,0.31241803836346327,0.2936422585824778,0.30059298674270296,0.29561638212378105,0.28563469797194946,0.3027034945455312,0.3046507471564804,0.31631598078438755,0.296168605474181,0.2882136479124777,0.30839199484291463,0.301586655983281,0.3002077729971092,0.3031493724424329,0.290256358378665,0.31707859087804924,0.30409154301496477,0.2985991420842472,0.2906349094772278,0.32353883235091213,0.3191012036297914,0.33962726103480445,0.28736729974815994,0.3058821053142803,0.34738581681578584,0.29662964714300716,0.2937539194061223,0.29917444154995093,0.29291136607928947,0.3076876145357312,0.3024699716226106,0.2922463646312637,0.3014408999918219,0.30086848568308755,0.2922564226720751,0.28448944148089184,0.3043451541236334,0.2974346392947883,0.30401037929741975,0.299882625293445,0.29673085642789526,0.30444274233007307,0.2977226057462644,0.31255902031298205,0.31528466313289727,0.3039678589937182,0.32635126573304635,0.3204287237001136,0.2874459197035409,0.2897060792392339,0.3044480876661511,0.29659157913051426,0.30609098454543876,0.28158671985022793,0.3121433327723522,0.29842202993940553,0.2963691584059338,0.3057075897722497,0.2900533931863579,0.32857136821258515,0.3094030820406756,0.2932081684148216,0.287355446859816,0.30159591224296123,0.30874180265753937,0.29047062210225594,0.28751816801427743,0.2828173885861546,0.2977724186609382,0.2880078625991589,0.29642192861056893,0.30374273345005026,0.3015769688723324,0.28930971642306746,0.2998147645026922,0.31345137743114704,0.2993859386324832,0.30895467116849384,0.2997243587444938,0.30387665505624817,0.3204090426413352,0.2868649874375207,0.29643045718961014,0.299454488577185,0.2888507390086839,0.2988171183124848,0.2940982806033416,0.28999091731388604,0.29172082623325013,0.29812461770030546,0.295203593132027,0.28444807229671565,0.2916426480411614,0.3065342491221407,0.3040247265942114,0.2884740754100884,0.29126284292687965,0.2927058607600564,0.3163349955907758,0.314481989919117,0.290369583497424,0.3081755702795126,0.2868764094643462,0.2938804443301248,0.30734701753139393,0.302081451375439,0.3065818210922878,0.33431806377110734,0.2854238739466742,0.29604860599320093,0.29263223740613,0.2919423857219395,0.30693688542850694,0.2904177568505678,0.3220602568789085,0.30152196111215285,0.29999495030204415,0.29195928784608105,0.3231216724332617,0.29764643413880587,0.2967772840712953,0.30660928893606776,0.28361632043718304,0.3017282170613198,0.2897665931509785,0.29156235134782976,0.3060496166349188,0.3017093138170887,0.30383686151422346,0.2882260869569086,0.2988819194810069,0.2902061721775765,0.2923107713357312,0.3103441443606643,0.3009376117962953,0.30014462266909325,0.29207915129441286,0.29941335401870506,0.2987975448836334,0.29407562422069555,0.31146419738757836,0.2959816638926522,0.2991674367204918,0.28581922850680896,0.28662969176515596,0.29999873749520994,0.30199334128740724,0.29602399086528647,0.31703005949512786,0.30185433549591273,0.2911044425388769,0.2984787107068685,0.295084833959912,0.29440727108678605,0.3034642508762636,0.2972908971305258,0.292858370819145,0.3110120887599363,0.3130490645182234,0.2978169964946083,0.30153102064544857,0.3157440119169238,0.3015201125163058,0.29469702115570284,0.296806821867706,0.29164602976954324,0.2884748506866367,0.30051209723522093,0.2994196792713709,0.3028232484231668,0.3294406838041932,0.2937570600905129,0.2987034382170503,0.29826426119350014,0.29581758608236786,0.2883214453769528,0.2938687564870138,0.29704199845436013,0.30598791592378805,0.30949763782743495,0.29523861122574474,0.2970926770975148,0.3048755843476441,0.30218037857157604,0.29562972570827906,0.3015986617735212,0.3197454018168795,0.33089432940300234,0.29861983843623874,0.2982563306264942,0.29116079975556863,0.3061435009450475,0.29152775044429396,0.2916211489831245,0.29271367010744037,0.3005210599602794,0.2887361461020572,0.2874008569177375,0.3066291554730931,0.3090584954761414,0.30401576929157914,0.2954480946796174,0.293886443929158,0.28929448822182635,0.30386445023294095,0.3028734861790611,0.30389764160054533,0.29976576036637226,0.29416172705159715,0.2995984767150973,0.2941895660475799,0.2952723788949091,0.3073144937446196,0.3100768236552086,0.3354652692064311,0.30524136069989255,0.3067308710074238,0.2924405264044431,0.2880451976550738,0.3047026030121793,0.297138589295977,0.29310456273547913,0.2922947906805809,0.3055855027456432,0.31070457698272136,0.32270958948117234,0.2912716899456241,0.30243685887703947,0.3140089224208248,0.29161619718267856,0.3178846280985509,0.30305619141115414,0.3155647888835541,0.3080770745944115,0.2903414252443367,0.29402201587140214,0.3093476178239609,0.3006556520362252,0.3016017644976192,0.2980122290848657,0.30803257022183733,0.29574809059221996,0.28992493967352057,0.28853850635508466,0.28686809348148734,0.2966695194662821,0.2904163637634994,0.29412333440351557,0.298611295827338,0.2977164209317507,0.29396315375795046,0.2934413484281698,0.2922975496876078,0.30691264346784336,0.3016241133040241,0.30035592292345126,0.3126934004666129,0.2972213013952031,0.29864491712735997,0.29416700269576207,0.2944108576838679,0.29122408705564745,0.3149891589908236,0.29350062916802866,0.29861486352457134,0.2975915389501687,0.29184332238888167,0.3120058263981842,0.29522699092047133,0.29188056373928456,0.30288540144776793,0.3039723282235459,0.38037479831037835,0.31284285574727055,0.3075426970377345,0.30699296023566375,0.29487054222702463,0.2933315198865928,0.32976279256219987,0.28930313085019554,0.29839889291960076,0.2894674308584813,0.29579103503754844,0.3012462745751674,0.3152310459981168,0.30303375304231267,0.29471230708243423,0.2937513030004907,0.2951327101759972,0.30274020222814835,0.31081591429574373,0.31386103058526793,0.30213943666823295,0.28996156319283756,0.29691230391998047,0.29050401160133343,0.30146645675062345,0.29927313483117346,0.32152493204432214,0.29427093785371267,0.29546207973060096,0.2935021115366528,0.3268898378752878,0.29539279154341486,0.297300381663357,0.31466280912660666,0.29977976516445654,0.29393249561864354,0.3034206786157893,0.3013613715146314,0.30736805958411445,0.3074385026747028,0.2933656715096108,0.29926296301440675,0.2952181724428056,0.28974065132042276,0.3114712103980164,0.3035168880198499,0.29328967795718747,0.2931237317673143,0.28685724330908446,0.31165920511920564,0.2873773102667753,0.31030749584314615,0.3102528904452499,0.2933485051066936,0.31696990252098145,0.29546248215989335,0.2898790174993788,0.3267321436103861,0.29303219884935644,0.30005437360417303,0.2964433687404788,0.2980794454305231,0.2903494951444344,0.29660678596394796,0.31008168143619363,0.3124997844335543,0.30877217357339903,0.3108872191799977,0.2956243586513294,0.33279350001719477,0.2936437453949682,0.29557988565782234,0.2930103894473925,0.30533182256839847,0.2907427914676787,0.2994358879266391,0.3005332891309268,0.2982447644390154,0.29524527202607115,0.2977729370197566,0.287211142818738,0.29716362364030896,0.2973040257320618,0.30313335061019187,0.28955067919372285,0.3038630640776806,0.2993177589007504,0.30327389669864724,0.2857233527528297,0.33590089547707247,0.2962492143116628,0.30126917814981913,0.3127802481030242,0.29771836252143713,0.30500352198847647,0.2938234448695613,0.3071689039075601,0.29724383678858135,0.2874054105654914,0.31893965583336886,0.29015400179186557,0.29768871933427665,0.3171734093981341,0.3168896376502986,0.33440458828177366,0.3025231754811765,0.30554716421105965,0.2861333179098112,0.3038010128855278,0.30596502539072934,0.29108998821978893,0.30692550002970703,0.3081844523295284,0.28557969951533574,0.296468944616951,0.2919307459427137,0.32863375163032893,0.3163790865152759,0.3082657365793361,0.29289844571145396,0.29874384018229067,0.3067632418700659,0.294757266477702,0.30075062240914036,0.3058052970960516,0.3070957368934553,0.3019184423314327,0.3192265564721445,0.29322590342819776,0.290740014074279,0.29139624150050336,0.303271850211977,0.30675623142567615,0.32085030381055674,0.29634494237324144,0.3004117985453657,0.2938756745025952,0.2967481421552161,0.28466623340163144,0.3023906947370982,0.2928664555183156,0.2918086120965654,0.294625843599903,0.3279955533714039,0.3187135997666898,0.2870951505841247,0.3070579156152911,0.2891006321172886,0.31219454279142245,0.31520024099714933,0.28754226155125395,0.3096161734737236,0.30192957946377263,0.2956547570080208,0.2867699367300125,0.29216043409914255,0.29722452249891307,0.2939848784628801,0.30269317172654764,0.3222737434000481,0.3030418400370826,0.2873829936349545,0.29671305530701797,0.3004329058241537,0.29271692962093043,0.3054992501099979,0.30803420029120404,0.3017502271000755,0.32325953852162936,0.30164677199542506,0.3086610017877383,0.3085335650226432,0.29213807751037973,0.2863430976871303,0.2911014997949449,0.2933275719401047,0.3013274574921265,0.295680567455182,0.30669515271711123,0.30776966609190454,0.29772710450573375,0.31878746410119907,0.2856233968282753,0.31755882083178893,0.297291679818685,0.292056056738233,0.29891307289037644,0.3094112820571201,0.30456800937038586,0.2882845420182888,0.2982029159853449,0.2890034650850267,0.2910365664830602,0.2907776156916321,0.32356288033475755,0.2880163660475164,0.3010356083324091,0.30141427260271864,0.3067199558663901,0.30083613121674035,0.29478089604491875,0.29937483298875833,0.3043317892295757,0.3225379813362289,0.2902147988040338,0.2955494083748986,0.29054867820394675,0.30508379952183906,0.3490017479561371,0.3008309935657252,0.32534898166859094,0.3150886753555474,0.29229678151719696,0.31658119239350657,0.32538208339124874
7,0.29245895290153545,0.30047339442835963,0.2989504352919864,0.3040735430417463,0.30093672778052255,0.2871885365543847,0.29672912853014405,0.30944286960050466,0.30065112411798023,0.3515425731776815,0.3031054270275707,0.29738721483146946,0.2953260776220661,0.3181403766482714,0.29680294707988947,0.3011335746032334,0.30399857638373484,0.3005243931972109,0.2997701928185246,0.2934322212946171,0.3015295912092271,0.29379065700576057,0.28773221207964583,0.31869091635572866,0.3036644881306218,0.30184998987758715,0.30420681099168995,0.29212911911717176,0.285203422913075,0.33029148723952706,0.2944607037101805,0.3021349663223137,0.2981873862242857,0.3010811846665367,0.31235145181648727,0.3062090209994429,0.3111800855144807,0.3137345042268408,0.29500948073835537,0.3053505419879808,0.3041485022728364,0.2891129132695211,0.3049867854000485,0.3008868207503524,0.30005066074451175,0.30322266384936636,0.29012560561978556,0.3002600726091587,0.29445189925182086,0.34618076603246545,0.2880085291014741,0.3024746934506799,0.3077300191415336,0.2935884296407826,0.3004815863092412,0.30788624258926145,0.29776203048178085,0.3109256000040164,0.31334585740516047,0.30649047126006007,0.2911265027301844,0.29292192858412014,0.29576214066154904,0.28941331825302635,0.3076054812423194,0.28879993987127384,0.2976042035640853,0.3047958314657505,0.30717823673941164,0.30365371910792205,0.3082158921601567,0.2955555502647272,0.3113751527464915,0.298798870214783,0.28687318636735043,0.30031016047521475,0.2878177863773207,0.2894718029621775,0.28865020529616386,0.2991453550538826,0.292694485605376,0.2961673012341318,0.296757442757784,0.29967764145828774,0.30997837993024663,0.2964530207797306,0.2845973497969379,0.299312301412861,0.31454346222626717,0.2950421533263766,0.29435899097600965,0.2961404033403988,0.28750007086522217,0.3190927119682795,0.2881130727842297,0.3077313624643998,0.3006925598255437,0.2877589861959019,0.31344814698806606,0.2852013559702449,0.293886058416813,0.3063056043705573,0.2975237289539488,0.30194831216694396,0.2962146506059603,0.30696433603387774,0.3151663587871326,0.3002616898778821,0.287526792889988,0.2959750111080894,0.2914171129392643,0.31162770777568716,0.30733395216833725,0.2907236608751599,0.29756436553084537,0.29669832237947874,0.29343706114263995,0.29297362571918006,0.29829099104539597,0.29513026118000074,0.3128815585818659,0.28565306261619205,0.2862427120630257,0.30216713980640686,0.3018740867078395,0.3013531956807063,0.30642872433433366,0.3021193801503574,0.30661372167441925,0.30287912177699405,0.29413183670973375,0.32292035833966154,0.30386083465641617,0.30302137274095425,0.3078130885782129,0.293150162189432,0.2938969771918216,0.28510488249514215,0.30113098713297953,0.29767764664158275,0.3126863160003955,0.29331940402873635,0.2978014244312121,0.29632908723310825,0.3132291800083311,0.29330483810667346,0.2998396850462305,0.31689641224696447,0.3286909900565559,0.2899979045267399,0.3017308187625302,0.281127681190669,0.303915225578023,0.3046518934157973,0.29113573866840203,0.30063456261847993,0.28606637049185846,0.28667520339360353,0.3042129674098472,0.29713068064237685,0.29967351715408685,0.30941396223098827,0.2848655298725707,0.3032857393982677,0.30190212364032026,0.29201221195140303,0.3070558790072407,0.2954098876953418,0.29120943931104715,0.30799828524822576,0.298446816295357,0.30214910767669423,0.30061574875068797,0.29144956188681775,0.30191880574066454,0.2981703323003598,0.29728093227337,0.2860009394894186,0.2999752485880606,0.296438389816138,0.2869584294491582,0.29618054628067003,0.3074326899655434,0.29797805543368955,0.3139175873120574,0.29442499012706647,0.2879535570693952,0.3232974263768586,0.3005713763771902,0.28434535380283915,0.305318896314854,0.30396821884904307,0.2912384973470535,0.29571865377628453,0.2889815525303218,0.30440016797162406,0.3095670298335242,0.28942198868144636,0.29526083265237757,0.32346949033708094,0.3009351210210174,0.3076090403075108,0.30870329270197533,0.29237719283982927,0.2922449780687259,0.2971775102142269,0.2854317559058029,0.2987496480901862,0.30812999679576053,0.29162432368125224,0.29038069758944085,0.30319788888961113,0.30680076387914784,0.3102165035926555,0.29674856249802056,0.2855861087246222,0.29652113500182314,0.2947604748528132,0.29069224338377947,0.3021022397007709,0.2985207403333088,0.2940926174170502,0.288859118998774,0.29866228389622407,0.3076701498110993,0.29960960357705657,0.29042779676028685,0.3137962542669711,0.3001875308564146,0.31603188372245183,0.2920115830223612,0.2963767852306868,0.3100000933228909,0.30211789245573406,0.29618605080992394,0.3131975170939166,0.2996998517166306,0.3013923795944435,0.30693034946210995,0.2892071102430597,0.3023197368854189,0.30422212776466434,0.2985253804435537,0.3183485879122335,0.2936096378840798,0.29184255502336554,0.3049925611826598,0.30985496750960173,0.2906344975814488,0.29113590418499985,0.3043849800813909,0.30868275236016973,0.31251171857663335,0.2969361707074026,0.29510245416615877,0.2879835129405002,0.30812398622388226,0.29060121163319796,0.29632392750452646,0.30228588405284623,0.29937851107759395,0.29680002716479975,0.29941399466472196,0.31848216238193644,0.29731041362341587,0.30494618705620696,0.29780502430353284,0.29075069399720743,0.29288731167787024,0.32228597747973775,0.29593898803491836,0.29512131589655416,0.291934388130231,0.29265568916979134,0.29739339325069064,0.3186385734447642,0.2951217322381844,0.3211929568694063,0.3046468418884478,0.29515836014704544,0.30218742370925383,0.2972317003569992,0.2896735840457387,0.3093835367275527,0.2953319773250117,0.3047789199449604,0.29893246080560276,0.31596426540270245,0.29329121990049123,0.2910246736923749,0.3050899695208536,0.3178722707563143,0.29830555620179994,0.30790040190944784,0.29703290902110957,0.31615670488969033,0.2925096903545159,0.30334072288700453,0.32737426385018403,0.2913208541252865,0.30895051502081494,0.2921535031864243,0.29411136147550804,0.29216155879477823,0.30582354872637335,0.3033271576553611,0.29502782335783745,0.3015662145907096,0.29286016140416776,0.307458675385404,0.292085231186548,0.29561142174852767,0.28876054459984674,0.30763450712990337,0.293805746043908,0.3299538058147401,0.2934789207521012,0.28928825053375623,0.33760319396659855,0.2952129958447593,0.2940917161880136,0.29010547497814865,0.2891197260331439,0.32026880754530557,0.29989289562583366,0.2901169819244852,0.29584846090926475,0.29118391527125514,0.2990910161297017,0.29629503945458263,0.3074584124686561,0.29195647603683206,0.3004550889621627,0.2966043691864106,0.3237303198447942,0.3020078421610891,0.306956226295868,0.294206268759784,0.29727365359468594,0.3169395850246579,0.2868645271018171,0.3006159408668435,0.29399829599142885,0.29749470467683886,0.3013129647248872,0.33329067722684685,0.29571056931263817,0.2986323697285578,0.3068436873041692,0.30093751101014915,0.3134979143718706,0.2982934072125717,0.31867948085074954,0.30726790954188965,0.30190828567787403,0.2984900629845671,0.2992074841097623,0.3093801051830766,0.3009085823702475,0.29830199065542956,0.309309447223433,0.2895670054894932,0.2986263665309518,0.2873053985672872,0.30276105791002317,0.2858083899406545,0.29140909716356517,0.30211448694486653,0.3015210016632593,0.302809853271751,0.30744104480687373,0.30011303635962683,0.2972057913338028,0.28873774314568046,0.29326125870718645,0.29587819586110087,0.3369573241801259,0.29879515380774085,0.3003870402491535,0.29109917406904995,0.29632762155856074,0.3018589362728979,0.2910166479716582,0.3103570320645838,0.31333651316588984,0.31052342772747454,0.31138168510146336,0.3156465361595071,0.3256635756113334,0.3273840797677362,0.2947887137979148,0.3022618956232422,0.2841881465148124,0.2963562458782397,0.2967893384024342,0.30745803631350127,0.29069765109630696,0.3078458462322227,0.30917530102373875,0.2888680015254401,0.30089463147460543,0.32257647991994165,0.2905114517471451,0.29328750094711287,0.32287992783964625,0.2882822802897856,0.3003898766925547,0.3013137903689075,0.2899274309016313,0.2938694962909948,0.2920392903576675,0.289588207286254,0.30217410370412645,0.28726508020967867,0.29629993500983265,0.29904519161175824,0.29332821573653056,0.3084604464477648,0.2984477465614029,0.29377943524884287,0.32202789135699034,0.29745902967023446,0.29757268253893143,0.30980486130040025,0.3061482400779746,0.297541715617283,0.29435458626811695,0.28522701787345883,0.31552266931611417,0.29779173183955565,0.2841644838167172,0.3176277138826808,0.3117420770060899,0.3054338797233881,0.3029515484650037,0.3060105877684228,0.3129865983541313,0.28382016884703326,0.2936635562423027,0.28451185373987853,0.2972357614902987,0.2935036052882004,0.2844168820548879,0.29912668539925436,0.2940786492278111,0.2922944959768397,0.2920276006064677,0.3068857022518535,0.2971301842907427,0.2897692287678391,0.3060134369761194,0.3049171347760001,0.2967924891775366,0.30174989509015865,0.30883655988051356,0.2978334580578978,0.2951733587846155,0.2938657856705144,0.2917902051568717,0.29808942089392254,0.2958531486735168,0.29698744450724596,0.2984486157118359,0.28470222878202395,0.29840015369828277,0.29700668668574226,0.299801214961514,0.2825187714337824,0.2925467791719962,0.2942452124605414,0.3000708773606594,0.2942898601911913,0.29094583487567677,0.3099395597285214,0.2983705870643826,0.29561609976526243,0.29833536160106167,0.29750432904864926,0.29783149442662854,0.309479561588348,0.2969071725718537,0.3005111907840022,0.3051368939958191,0.3121645300728997,0.30223430893179226,0.2939182163480515,0.2981457654606931,0.3106886385606044,0.30207931116100306,0.28903193879161765,0.28997022139055284,0.2905760678861039,0.2848581787265313,0.2981133895102802,0.29661690201319435,0.3192067179662089,0.2915614006694328,0.29166072554363615,0.2967153653135071,0.31032015400154156
8,0.30042526991112684,0.28928886898304385,0.30550716613991247,0.29397463921264055,0.3069500314737829,0.3068426403841101,0.29387116984057793,0.30507037977660006,0.293909205884405,0.30386469332327976,0.30740740569777514,0.3071204285580861,0.297591523293182,0.2899158500612285,0.29795187296401215,0.3155255989244102,0.2925908328105624,0.28550078707403403,0.296943474176837,0.3123230856547685,0.301092088922554,0.3199246708110453,0.29467271873199585,0.29969981223523273,0.3108546605547583,0.3055196995724578,0.31413374882310147,0.28856644330494385,0.29888791120409863,0.30939323473056957,0.2916662789125689,0.2964610197587292,0.3043555833975379,0.29942204552034524,0.30631895724776226,0.29431344820463606,0.30902252449165596,0.3119336297317706,0.29916658921097744,0.2951597691847513,0.3153349750002791,0.2931154213485605,0.3013794481568904,0.29573361619345173,0.30133517206462523,0.31280019467125947,0.2995835390764573,0.3134938038415897,0.29393328532151336,0.3074747155966452,0.29320134808980225,0.3018221556965326,0.29970052854969087,0.2964895784835857,0.3049015387443986,0.2912439776270161,0.2966450139056611,0.2992325991572394,0.30888004135216696,0.31147416556060137,0.291016280140017,0.29005774165989817,0.3018062987005431,0.29520317012292596,0.2901920628826512,0.3038606986266471,0.28506457520541956,0.3229486548214057,0.3008924823278392,0.30242743460461685,0.300520190941954,0.29777812004662063,0.31362965567828044,0.32218792606584923,0.302243637798205,0.28907466848750507,0.29327742195913126,0.2945112015045351,0.29044488828550813,0.29689136418577877,0.2886504870317671,0.2916325540988347,0.30576824258594504,0.30226908954544623,0.3007238955253017,0.300947716023111,0.2936807942221895,0.29865442540251946,0.3127201795494181,0.29851924771240945,0.3175369068941118,0.2903063631004609,0.30459565426170465,0.33217972508759375,0.298801917970673,0.3203024219748588,0.2982005915873417,0.29261911590662687,0.29570186433019385,0.30230995594968896,0.29781043837962706,0.29350663178512393,0.29329522829766214,0.3129299867014827,0.2887059872802586,0.29360994738500895,0.28549788670127574,0.2941817040790474,0.2858148453214452,0.2925502334036403,0.30074389491763703,0.3196433204208041,0.33056726455116003,0.29710616925710315,0.28599306128731283,0.28806196233174114,0.3180398280605136,0.2987216135888014,0.29446910243545354,0.29546189476894935,0.31672767284118714,0.2895883549687486,0.2872609450690743,0.3032727189348558,0.298137469698572,0.30080103369157285,0.2880594050695143,0.30415845119882123,0.30269744409809535,0.295522110843734,0.3016471930349357,0.30566589581472237,0.310494752774753,0.30179976686100396,0.30007310196378995,0.29428096710567897,0.29419382430893115,0.2964195754782114,0.28947799291514376,0.2991204137735654,0.32960499394028,0.305111453607913,0.30083125880445,0.2951936667375997,0.30874082730944336,0.31089972078436956,0.3033357062173557,0.3267122529773369,0.297165756164679,0.2999289236939509,0.29631424599571876,0.28630845083382905,0.3255361897303306,0.2900465027520435,0.3021443664755657,0.29986954579563485,0.28711128597884417,0.31792958706031393,0.297679605417444,0.3020106142513991,0.2932721334180825,0.2918113926841609,0.2892704238438547,0.302999558751495,0.31643156465043865,0.29281069903156165,0.3149937352745748,0.2993854226731752,0.28717063130665493,0.29493856986972056,0.29950967577963905,0.3031444158489743,0.30177167697671164,0.3064144016255609,0.3015470531879949,0.29992765707181757,0.30979649818434757,0.2868716797493761,0.2922950388518755,0.2881776539152265,0.2966053401568159,0.290593877075852,0.29883353250874967,0.2983585803010994,0.29300347280953326,0.3028418533067701,0.2917019847061429,0.33532120073701904,0.2859769525986421,0.29432785276107387,0.2979095821314269,0.30321852635498725,0.2943730593385705,0.313987704130376,0.29032281077353594,0.3032263054098297,0.29518396802982244,0.29352009969934234,0.2995141497098741,0.3254064647766982,0.3065416446207009,0.3148800423196665,0.31266452505106845,0.2923989917631511,0.2967434243905145,0.2939443425093269,0.2904055453163804,0.3025209048187378,0.30259036277713636,0.31160248975911486,0.2867477552691469,0.298791594190472,0.30085272746842406,0.30386666303770277,0.29961022648313074,0.2937688932037287,0.30582716103746826,0.2890195645042176,0.29118228921682765,0.29063983499801876,0.3159355371531819,0.29462587042924027,0.29559406797457116,0.30169888077973434,0.3097725566534762,0.30304890303064524,0.28375987278130654,0.30343269464527206,0.2977329197107367,0.3235316277814956,0.29695210663095434,0.2971911612459822,0.2971417421878526,0.29005399650072344,0.29223562854758556,0.3106317634900658,0.2989198038310494,0.30526132130109807,0.28576769532562374,0.28712780638811347,0.3108828911669066,0.30191341660755205,0.29563643477019086,0.28700121691616715,0.29920446414075713,0.29687571612492997,0.2992623644240655,0.30091095465656725,0.2920356590794466,0.2853333227616719,0.3061073893671019,0.297582794426572,0.29422575476961654,0.2965983527085764,0.29054159122045536,0.29760592610688874,0.31420672049289844,0.2961816526069729,0.293432575464286,0.2948273938127076,0.3007495525280792,0.3009680699790567,0.3028532780299627,0.29551477759943895,0.30444461557125757,0.2936473040417071,0.29371338592835483,0.2967598711044313,0.3019984981061886,0.31386094633287287,0.31525376381260045,0.3007266605506249,0.28962105869659277,0.29148224616064855,0.2851315483079267,0.304242604430388,0.30363695751791475,0.3129304009239616,0.304027782769474,0.2925868470823221,0.29686479247773023,0.3052028600949034,0.28495721012599373,0.32160571337561544,0.2980633719324578,0.3121429954775007,0.29381441036757633,0.3007050328750268,0.3061342614507759,0.2881066841642081,0.2915427887385197,0.3910588796365317,0.2908049072756318,0.29778823946547694,0.31321294751136847,0.297695024786601,0.2941668182247691,0.3084967137092752,0.3207144463517938,0.2879098207899593,0.29205361846858374,0.2959835093810018,0.31011612564002433,0.2893654174230758,0.31050103254258415,0.30018105267033784,0.30420207484876644,0.3070459709604562,0.2968997686508066,0.30988946155827646,0.2953048214073833,0.28872079447635085,0.2925443476245143,0.31080444251591144,0.29799289594649325,0.31600355318303314,0.29330618645013634,0.2968506082732919,0.3324758326995006,0.29564360780711985,0.2943560720989151,0.2918935237203917,0.2915392062960994,0.3093939296674078,0.30240475026014857,0.29686006414374755,0.2991372424948027,0.30568667539565325,0.2858389001168936,0.2923487797271647,0.30970413239869987,0.318103926510645,0.2945469869235982,0.30411106024977846,0.2986506970983277,0.28790477556865945,0.29311775955874747,0.3195690510638042,0.3007636283692297,0.302195046328556,0.3025901681480678,0.30583131642436917,0.30095413155510636,0.2883739792539751,0.3042226069897971,0.29688447959186426,0.30502319102003433,0.29976464978640516,0.30570368655020985,0.292759953129004,0.3141283005455268,0.30289160894206646,0.3089221124130951,0.3105599420819787,0.3109846843307972,0.29709228138149635,0.2984262807072585,0.2981100064702217,0.2855245497973845,0.29166383113844313,0.3117498778599034,0.292555106811638,0.3182287418405971,0.28636188564472614,0.29859840477402094,0.28563182516523855,0.293852604647593,0.3071946376080898,0.31048864503566753,0.30449154686517005,0.3052175679505117,0.29679672934039514,0.31926507495225265,0.2952889149780026,0.2914151607392452,0.29036570058785616,0.3412378978947137,0.3122292026267929,0.3127311234693628,0.3101084001031186,0.2978478672075636,0.30768097079572304,0.3071901243866365,0.28732287046926047,0.3223986227715786,0.2946612238564784,0.29066158610918824,0.35223016552963726,0.2922422192369409,0.31933071876596475,0.2965098137794417,0.3114082307833361,0.29969153911776353,0.30317704786042915,0.29561687966568134,0.2962702321807767,0.2982573969688228,0.2900686634805724,0.2894490676110796,0.2913624838893564,0.2969400095875617,0.3457039663098698,0.30106433509135044,0.3135169301329247,0.30855378953865725,0.2880858697394715,0.30308670522101583,0.29557645299674873,0.30080161381230797,0.2934064242596645,0.3036829127194268,0.29343311830627805,0.31111193273909604,0.2886821429592787,0.3070583407392812,0.29617042063126686,0.2963935510475452,0.3008618437987246,0.30835477567417385,0.29436718029635667,0.31494618093142895,0.2903622262793735,0.31138619737785017,0.2920103804105505,0.30194174815506,0.29278660580273624,0.2929792472410518,0.3044596139196857,0.3080307475217275,0.2965892886569845,0.2881831022692496,0.29478021034634005,0.3154480303991811,0.29659378969430095,0.3056460385521985,0.3000736289030524,0.3332083817367121,0.29102934712317063,0.2982651623780489,0.30143257994386735,0.3009593266522318,0.2991058366257914,0.28496441282579554,0.29354071461104253,0.3047470896885132,0.29063848357898764,0.2893701288119556,0.3025047833140279,0.29331475679545166,0.3017443147052479,0.29625626689668455,0.30472234619844996,0.30012168171107145,0.2986837128380176,0.31055437377329537,0.2987710105992287,0.29816376247746035,0.2967408639871093,0.2953419586733335,0.2912373641143494,0.297940631153899,0.2907685437434053,0.3030922853440724,0.2905957590272775,0.2926279161234774,0.2954237912796009,0.30681232585548596,0.29774922767368517,0.2934692665884475,0.3018083243424681,0.31864457508101923,0.2978945312389688,0.28939732539448376,0.3043526996261948,0.3083543836531403,0.2941925138917329,0.3008773641198831,0.29729184254609825,0.29911423744521015,0.30712616204892373,0.30617342770263634,0.2879731231531274,0.2980010262029966,0.2990831639052345,0.31134458177234203,0.3016223648380557,0.2950486595731431,0.30694057806910574,0.3031219555291403,0.28949097390908674,0.3010316258431651,0.29390791294038293,0.28794856708746674,0.3175216743653582,0.29103823226645364,0.3661231459709368,0.297025152944832,0.2859758521429833,0.30962665821988555,0.31667606767917905
9,0.29393648703848124,0.29356012403821136,0.3073975468694926,0.30454900358174586,0.30646955849710555,0.28939684980729513,0.30922502428230775,0.30432097081704623,0.2999022320455384,0.2877541811921778,0.29089411194984666,0.30717093419266284,0.31025933333321254,0.3024259450815379,0.2924275555827609,0.3175989031547621,0.3160963369166186,0.30050110641382854,0.29987910957262726,0.31675753491823155,0.30546421007445024,0.30703944348399426,0.29861776764563464,0.29477900233805115,0.30799300057755624,0.29669708254582156,0.2947278434244148,0.2933453342208661,0.28717719034098305,0.3038901852329972,0.30058371215274476,0.29754912892722396,0.2988521426462492,0.29997513577149476,0.34077206871273114,0.2994068172743968,0.3028723524290373,0.3099974018134105,0.290364636942483,0.30020540475712265,0.30545591246759285,0.29019319902758395,0.2999187662639004,0.3017415992953739,0.291531293032281,0.3094667509451067,0.28425843077001234,0.29469910954857,0.2973702288803065,0.317645615869375,0.2944817763711206,0.31015355026401414,0.3026974810883663,0.2925495715513248,0.2945184614669246,0.30544473071532124,0.2971256223926636,0.3157055171247296,0.29875069443559554,0.31152521023878393,0.292818934343945,0.2974340830199023,0.3039395358098935,0.29949325627751683,0.29470241723191515,0.3020709052152054,0.299153678918295,0.3073001876110371,0.2959997659323184,0.2971880194959927,0.3154334983302284,0.2946508860639696,0.30297919109361127,0.2984368399639736,0.2848165916436664,0.28492694593627793,0.2988083610748582,0.30278240453118627,0.298250540975576,0.3001328298353951,0.2867091234227186,0.3009803431196836,0.29276586846718683,0.30201654424695634,0.2955489668725291,0.3061803769043866,0.29357560154347717,0.2938966947474691,0.30469684462278923,0.28806645429823374,0.33169452684915307,0.28608817325538044,0.30879596696960687,0.3214399391921462,0.2922405342846588,0.3112502697214814,0.3423767108013959,0.3084878057900985,0.2950561592588111,0.3050103867067545,0.29642880649408243,0.2901563272163322,0.30290717479738843,0.2943235435300655,0.2878367909987935,0.28981457368883684,0.31255716328451955,0.2957372313656044,0.29022293246810726,0.2990144599456781,0.2957291560672596,0.32270552298097815,0.30176703065533805,0.2858687424161955,0.2951312881697036,0.29422326577583074,0.2977159345790844,0.3059966558320945,0.3034962418292162,0.3082923716401076,0.3004570526487581,0.293083964336107,0.28842481480442905,0.3051596127245484,0.30637542023006825,0.3190187184920854,0.3020644083698597,0.2995084047573214,0.29168398518446953,0.29005772232703464,0.3077717295748402,0.3155373981116896,0.32308712333844786,0.2989952105850323,0.2919946703162003,0.29588318883798626,0.30108625017192914,0.29038051002177745,0.31240243685833147,0.29364652977246103,0.3099607194227964,0.2996518060591611,0.30247623694694553,0.2979016822015364,0.29867018350338614,0.29412070975275584,0.31070994009082675,0.31965816477295134,0.3072603415875539,0.2974065340352301,0.30166441496053953,0.3012621501916094,0.30995035381709657,0.30378582820187194,0.3097349063610598,0.31036153618415946,0.2884659722060479,0.2997704178829812,0.3117590010103472,0.2988555900296507,0.29861177049024884,0.29899663587957315,0.29081648786205366,0.29377830931892535,0.293995160497036,0.3063219995214744,0.2966398262123602,0.29558403020715407,0.29490120164580624,0.2935444454369849,0.3037012329409275,0.30960229568855946,0.3062423662350879,0.30533552964423283,0.3073582481871323,0.2918103977540172,0.30021836568630783,0.2836014473884522,0.28671913448227004,0.28840012940399323,0.2965569386801559,0.29239723362480274,0.298510353392592,0.2938764266655239,0.29274834942969874,0.28507266749755783,0.29878782814958504,0.3241359485428558,0.2934283809588131,0.2969698972626763,0.2911277235827675,0.2954839560431646,0.29751963755928024,0.29620197567463497,0.29355975724984806,0.28840328322653414,0.2963423574334839,0.29732843367505857,0.2941895678235036,0.30409987207770833,0.310656238311789,0.32045579595450946,0.2956408082508484,0.292014519108427,0.2973930324337349,0.3073722428949032,0.28648841025337746,0.29435521043689244,0.30485951740685435,0.3078272130116112,0.28464635850517916,0.29124874312115434,0.28951996367867183,0.2987129450842263,0.29586690349364475,0.3024149663476048,0.28926281657782804,0.2956405271803608,0.2916111465916758,0.299149974015288,0.3004911349452559,0.297327041117723,0.2899766780360984,0.30580876162967086,0.31929858121083093,0.2928779897378909,0.283573480557984,0.31206307413887274,0.29677712590614547,0.30003942438956793,0.29631942396141064,0.29424413593645166,0.31825127633556477,0.29691950384402366,0.2879414113027722,0.30326818189591415,0.29751353282951354,0.2983760567705475,0.301989394111426,0.288837139537821,0.30245670276772796,0.30218519655134746,0.30037524304910596,0.29285719852796793,0.2897974674295719,0.29240020094789837,0.3099477006949084,0.28783905623876804,0.3044940005582619,0.2898689060211765,0.2940928136119773,0.30184316356798047,0.2894604172447893,0.29548543707115194,0.2934711195024815,0.31056355649991935,0.30787920849538863,0.29257682160075926,0.29328448231493154,0.3123061596340708,0.3068894660531821,0.30077805578194294,0.3035981363865553,0.29056168616128975,0.3065109955968465,0.2971170224678803,0.30217992342168853,0.28969665505170933,0.2871058888471064,0.3128389528035783,0.2930067644391585,0.29667161278917964,0.30946366916769563,0.2981585634454273,0.2915084787861489,0.29971168798994763,0.29097490360130285,0.31463545386705827,0.2992004697973466,0.28906639682304985,0.29490914826136305,0.3066752962710773,0.30236607352743283,0.3018527114462423,0.29749015467344614,0.30586660520873593,0.2937169950033537,0.33747709162206396,0.29325866360849884,0.2893200496268457,0.3024190783829016,0.32852018349615564,0.2896276411820549,0.2941714191401898,0.29880285390145755,0.29588202086554916,0.2868121370280178,0.3049975710352473,0.3081558432876848,0.2916161009019857,0.2948507015038505,0.30204802775209344,0.3023360843928033,0.292782366347358,0.3009078142451153,0.296658363987523,0.29848407197737387,0.30684766140445996,0.29467379763931384,0.307445830113543,0.29441880569654644,0.29918191320178483,0.29232412555120324,0.29917788516200616,0.2953566627539449,0.3190880617464854,0.2872906388591211,0.2975665644929527,0.30638992561608946,0.29577354396553035,0.2917230524290336,0.2963725896399017,0.29287776700673623,0.29440498534729886,0.29306825689947863,0.2962527480454532,0.3022880248573947,0.3035728683693419,0.3009042436066528,0.29278437736866864,0.29804722677291307,0.3208876337625185,0.29968503192485685,0.2954512910238102,0.2910210830704825,0.2851849779286446,0.3030832536785565,0.3013131460651902,0.2947439562033799,0.3147594464776362,0.30219549541383955,0.29483128546720166,0.2939299850689825,0.2905250281774204,0.30572049528010925,0.3046582824579621,0.2987432751219266,0.30940608425241084,0.2987461341599476,0.28896737087456037,0.3299249775070133,0.30537103178126657,0.2948736260533498,0.3123050607476595,0.30386641575923323,0.30083677742390225,0.28708947615675534,0.28607718709162194,0.29405730707416683,0.30227671962470437,0.287095535772845,0.289916664128283,0.2931620299325631,0.3009645525996171,0.2997235691659264,0.2966035605738731,0.29758467850085807,0.31001629185747676,0.31885087229514447,0.29443688845371796,0.2985707748399726,0.30919884160343475,0.2936717395870609,0.294385797211311,0.2903632134637623,0.3026063376443304,0.3062916892772084,0.29726050449391417,0.3002199583463348,0.3123952091119331,0.3010306313401544,0.30516279380799516,0.30841190305147403,0.300555321556762,0.3100296225609224,0.29317310783854417,0.3021148439943452,0.3029777023551411,0.32705247625049483,0.3221237285953963,0.306624664109592,0.29010577807879956,0.2841443789407608,0.30566314279359813,0.31294786599301166,0.2978783740672288,0.31204571072886356,0.29206984410519293,0.29793600915949103,0.31505940642115743,0.2965126416765583,0.3213412931646877,0.31326540795562213,0.3029564156678431,0.30870797157438373,0.2872849151034252,0.33504234548430106,0.28934373447128064,0.29984108524317526,0.289109348212577,0.3005829873076022,0.30482303242054554,0.3120006893190427,0.2834844296105326,0.3111425333671983,0.28450538796377683,0.2935706638742645,0.29827554066525924,0.3099986466378587,0.29480210148372055,0.31359354976992476,0.2951696812828873,0.3238698628671493,0.2865510148188129,0.30315989664548415,0.30501343712508727,0.2920407488203013,0.2905847652007136,0.30667194708973633,0.2978986961083748,0.2958137579557462,0.30182452826175354,0.3026984392045173,0.29051858527229457,0.30090725099260296,0.3045268098337047,0.3381637345370391,0.30071862663459276,0.29534586616251973,0.2942825913273549,0.30332644519492036,0.31092074967071226,0.29259871023737904,0.2899039194937873,0.2989302342864938,0.3118777314847341,0.30132069199773576,0.3004173325133124,0.3052913702639385,0.29788270176667053,0.30421703535580663,0.29163681947881065,0.290940021744815,0.29100919123987096,0.32104233842586954,0.2950378427723933,0.3098125824645695,0.29255546211731703,0.287892972608651,0.289182502551643,0.29510152669683676,0.3049338354577616,0.30185733125483505,0.29299829692380885,0.2937644529267335,0.3149829646886789,0.30100590697249996,0.2980879195068079,0.2954732181779,0.2907208224552216,0.29208653179330446,0.29960474730714626,0.2943010498699675,0.31041356670714937,0.31981898293910294,0.3044909452092807,0.2956810862454364,0.2963285439684171,0.29508351874358685,0.2985574647750683,0.2892932892777615,0.29133705550443906,0.2996373521235305,0.30943637923323764,0.2974562362099683,0.29481460401106807,0.296896852742254,0.31247720869360307,0.30625546524656183,0.29145872289881447,0.28880069066329206,0.29743128624543735,0.2910621125363695,0.32220625500576244,0.3186398457155645,0.3057828255432048,0.3070980349392156,0.29765198728543196,0.2999179940208342,0.31528821156328346
10,0.3065613154713615,0.2915474973805459,0.30605620988612076,0.2858316341047805,0.3057697088616156,0.2941848358663139,0.29407374792193997,0.30970429412546646,0.30182417145664614,0.2967485693888257,0.29839025827042875,0.3072306161526855,0.3033528759531049,0.3013366931964264,0.30076959244552903,0.3043702812899134,0.3136054952147581,0.2895371632834583,0.3088778252627874,0.31221622429389234,0.3098800548366233,0.30638449022567754,0.29425244390379096,0.2995821444421767,0.3014466491655014,0.303009008600511,0.3073437428404941,0.29861712038155075,0.2861817162179122,0.30859287896472665,0.3112371294995984,0.2934039124269462,0.2950311749953488,0.2955761193485804,0.30816022795945164,0.2891702616807579,0.29748260316334435,0.31818571399789913,0.29570198705544487,0.2908239070239377,0.2977644031936054,0.29243671094030044,0.29165997790476805,0.3053733964145515,0.29747330971055447,0.30861949514174725,0.2969232024909731,0.3057577190960148,0.2990535365385154,0.3185048807524628,0.29720075096680204,0.30684955520701684,0.2939783928842935,0.2984874132384685,0.2960031351193734,0.287997395620203,0.287640293877171,0.31639327009695717,0.2974298934617641,0.3100152252934683,0.293639519447994,0.3091388658059474,0.2946217193850817,0.28849638913163483,0.3023600125042602,0.29017102640155956,0.29244263909106305,0.3097329067622517,0.3010734652847,0.30155205963950527,0.3003823605199326,0.29961370680211263,0.3042845275738207,0.2978930044736171,0.2984813948943824,0.29370043506573956,0.2973879228977462,0.2989101663373973,0.2922624569729865,0.29339164508291016,0.2958551831526066,0.2879669683373246,0.2959698771473446,0.2959593820189941,0.29771768431147005,0.31151557897961624,0.29971817929319533,0.28719796501546446,0.31859669788700806,0.2957391372604602,0.31173772524667837,0.28866728020512455,0.3052587930985199,0.3169721841341292,0.29653831937311237,0.3034337887176871,0.30240151936070025,0.2933934817359284,0.29077441077743055,0.2979171828330798,0.3072068273760775,0.2961923771352907,0.2882281126050392,0.30587429159475726,0.29665346845849355,0.28851121003548386,0.2947782135530864,0.3077922711883702,0.29729595751894855,0.28933805110264715,0.30313995739456356,0.3123902291199432,0.30883463500548475,0.30384115298874176,0.3031598819068359,0.2951081955003765,0.29464079100400753,0.2907369355596657,0.3064966244238236,0.31273093316627365,0.31269986332551164,0.2915857480647405,0.2838792540999314,0.2948354133962105,0.2980286926471391,0.3162146228227312,0.3138518985213129,0.3146131144702254,0.29324470704836914,0.2933535283152958,0.3057646707260159,0.3005654221258237,0.3148700754487968,0.29733106133966614,0.3071326436487283,0.28673620703390623,0.29992515443948903,0.29298580379926775,0.3013799281074979,0.29322647862378337,0.3059213650925042,0.342817380339843,0.3040826323011069,0.3070858916741274,0.30055239031034653,0.29959848840586834,0.29892902562076773,0.29977975243945915,0.2948549242889323,0.28656187903170965,0.2991554060693816,0.28766579004228,0.30800264275741573,0.296950390487771,0.3143290202234127,0.3011753967759254,0.29609860780610997,0.2991762980791539,0.30562067935630666,0.29595594999574076,0.30694835033241824,0.30719677511092,0.2913060920319576,0.29140699962895134,0.29699351207446834,0.29199451705840124,0.296659499261435,0.29957915857508893,0.29020239113176405,0.29296112036451627,0.2922330257569409,0.2961045619269126,0.2914044130608241,0.32104196639116356,0.3057303817740702,0.2985871813830395,0.3025368269167373,0.28713764289150645,0.2890900462331302,0.2845987635220788,0.29467415835286426,0.29280253659476113,0.29597823949072743,0.30338861119373295,0.29572779494570456,0.2905635092507338,0.29053282704969724,0.31344604298777423,0.29296901773823397,0.30340965575077633,0.29118457151949684,0.2919555346540909,0.306912683080548,0.2920650706660209,0.29315499138154766,0.2913438479902234,0.29517726287988794,0.3024532698722701,0.2891460513622875,0.3285099628703572,0.29895894950280455,0.32250495849312844,0.3003820174780692,0.29887838602739986,0.28880590024679753,0.3026577076404767,0.29940094190004074,0.29874040001473723,0.30182891168201953,0.2986101278391418,0.28428474395206127,0.30055183232118715,0.290582536282597,0.29475144445366414,0.2927108021954846,0.29278722206485197,0.29601003168899687,0.29415710323328637,0.2934728312426033,0.2962897862619053,0.2986646044866024,0.31932641534025674,0.30587710246492233,0.30546800610740366,0.3089127668286902,0.2946347832776711,0.2857565525741611,0.3045376355615289,0.31517693232295513,0.29851293435203446,0.2969650428522656,0.2916354255686893,0.2958576014945614,0.2924726392688029,0.29639579988577597,0.30701972063544436,0.30280925481235743,0.3079142482308614,0.30971455550549487,0.29196912162362054,0.29093597058833975,0.30370837849510235,0.2934794304010808,0.3161343800505095,0.29182885345080894,0.3061332303265927,0.3016085191224945,0.30659837934442435,0.29425101832231687,0.2852957024545247,0.30969196919267605,0.2962296511950282,0.2855055632294097,0.32462891871378213,0.2897383830406151,0.2932853230298821,0.2923975427944226,0.28828922784386785,0.2922422819039595,0.29792026735751925,0.29724340860016896,0.2898667689423978,0.287734142887337,0.2984136951048231,0.32867252064831276,0.3003854195839163,0.2947144625198893,0.29802695898869586,0.284053409411595,0.30252696087446695,0.2975877777726613,0.302321299862515,0.29352304981324556,0.29618274244264775,0.29844578865205956,0.31417875785660754,0.29218126586517834,0.2947351392116407,0.30538673170958874,0.29099940940203456,0.3026436573524185,0.29106438256174255,0.2856393386613637,0.2977138808570382,0.29612032636905183,0.3122195185642417,0.3045786628889994,0.31045539693029556,0.2991851446439499,0.295576416639013,0.2937063816883262,0.3322977307521801,0.28789890732067824,0.29104416032535074,0.3024552578140414,0.29801671423748927,0.29610497932899355,0.29433582474592157,0.3174611938191336,0.2952169110219035,0.2891928946682385,0.2954746278228689,0.2991833760453343,0.28602404946697624,0.34751870662704903,0.30809939644739653,0.2928447095987062,0.29401522151863996,0.2925120111118125,0.31437707777807516,0.3014683105404897,0.29583138899557393,0.28848525554154064,0.30032133916017234,0.28983239765745733,0.32692226370546607,0.3031121633157694,0.29059693008862786,0.3139746107921095,0.3052117399921605,0.29864664756290094,0.29600648326128487,0.31852945686976947,0.3081794198040425,0.2942738519018227,0.2965782059331864,0.2967375408707965,0.3045204406812741,0.301278119084644,0.292511958000967,0.2947822599038602,0.3051905831835048,0.29374105594378763,0.2862266094518935,0.30766502426944614,0.2848315247727161,0.29504922545043066,0.3143003704277261,0.2946741399261369,0.32709536469597533,0.3036460244029712,0.29078795753588216,0.30902115692564097,0.2917851241668957,0.309379357537279,0.29434126290130314,0.3186174781349599,0.2885835033771282,0.30734851307367517,0.311285451987935,0.3198602500288475,0.3139964034653338,0.3087068353318909,0.3073044282779834,0.3042297188502321,0.3023706861284517,0.29625316426901377,0.2936404597484986,0.2899810647959197,0.2990310951071677,0.29360048761846985,0.2943226494363506,0.28992529747803636,0.2916909087388829,0.31044547949098356,0.2874131466032182,0.29595698272520166,0.3165300830647545,0.3102885103159011,0.30935417548516303,0.3244663413751779,0.3009351417931502,0.30657803990339627,0.2902798317895804,0.3078904324199541,0.2945580441562203,0.32773823185860373,0.3117512868247899,0.3015279646218057,0.2897911363393284,0.2957708242612479,0.3105117986176648,0.3013579171559673,0.289344323578611,0.32156880590385245,0.2940628612249162,0.29024378518721067,0.30549508217414667,0.28850622160095385,0.32444855397242256,0.299198476338762,0.3031218598909474,0.3036328474291889,0.29770118860785605,0.3113713431001523,0.3158939676242146,0.2963751654453043,0.29804921039064475,0.29415746111676644,0.30360882662571537,0.30228527798192445,0.31837802729484127,0.2886268691142303,0.2990269172328553,0.3059253538110056,0.2945705364672539,0.30795023238213115,0.32116110618766214,0.2950132516868374,0.29453703122151276,0.3013686084105181,0.2910493832832361,0.30060059311273685,0.2887436758054508,0.3017992381130627,0.28989656238201916,0.30050266182420404,0.3050928259283009,0.2990449625003845,0.2878988765028293,0.3060118032361686,0.29033223051208923,0.2955704445616629,0.2931675695838821,0.28910658643610215,0.29836197626190286,0.2970204533458781,0.28612349450871916,0.3119775922893449,0.3036927370308989,0.2965913919267529,0.30970273421275163,0.2995454379117968,0.31246028791469077,0.29077580238692924,0.3001173638286722,0.3671445661961389,0.31327140931063596,0.2932156469740831,0.2928751565028237,0.32466410199374873,0.30923524756279336,0.2884901637944384,0.2911690631941116,0.2916646773572038,0.30142238864315096,0.29884481433706345,0.32409920893787664,0.30774728262502665,0.29329570200175226,0.30602970114943107,0.3036059750337508,0.2932402434601298,0.321061600237833,0.3024140368463159,0.2937253244812565,0.29469959094692133,0.29335047205251563,0.29415777553738287,0.2867290016288246,0.29315657084244695,0.29537114335141673,0.33665409846842725,0.29974642882539165,0.3139952402531408,0.3033529001960327,0.3018872169162294,0.2918464606890083,0.2921573975039107,0.30662263437655535,0.2965317019468012,0.31303794258336576,0.2938028896100134,0.3045816967352519,0.3258263514600052,0.306235965059243,0.2932409029767894,0.29689923335261165,0.2967313992230041,0.296970112553497,0.2902166185705534,0.2934273229314771,0.298201166273096,0.29531628813697447,0.31861413180932285,0.31068929128209194,0.3066294047564262,0.3136817756356379,0.2944087742870457,0.29621864921922736,0.29487191025325105,0.288803067450469,0.2994498172514445,0.3245284314453517,0.2901946031098,0.30399267233504507,0.29318949587969967,0.2981302012665379,0.31583127757419216,0.3093375120509409
