t,rep_0,rep_1,rep_2,rep_3,rep_4,rep_5,rep_6,rep_7,rep_8,rep_9,rep_10,rep_11,rep_12,rep_13,rep_14,rep_15,rep_16,rep_17,rep_18,rep_19,rep_20,rep_21,rep_22,rep_23,rep_24,rep_25,rep_26,rep_27,rep_28,rep_29,rep_30,rep_31,rep_32,rep_33,rep_34,rep_35,rep_36,rep_37,rep_38,rep_39,rep_40,rep_41,rep_42,rep_43,rep_44,rep_45,rep_46,rep_47,rep_48,rep_49,rep_50,rep_51,rep_52,rep_53,rep_54,rep_55,rep_56,rep_57,rep_58,rep_59,rep_60,rep_61,rep_62,rep_63,rep_64,rep_65,rep_66,rep_67,rep_68,rep_69,rep_70,rep_71,rep_72,rep_73,rep_74,rep_75,rep_76,rep_77,rep_78,rep_79,rep_80,rep_81,rep_82,rep_83,rep_84,rep_85,rep_86,rep_87,rep_88,rep_89,rep_90,rep_91,rep_92,rep_93,rep_94,rep_95,rep_96,rep_97,rep_98,rep_99,rep_100,rep_101,rep_102,rep_103,rep_104,rep_105,rep_106,rep_107,rep_108,rep_109,rep_110,rep_111,rep_112,rep_113,rep_114,rep_115,rep_116,rep_117,rep_118,rep_119,rep_120,rep_121,rep_122,rep_123,rep_124,rep_125,rep_126,rep_127,rep_128,rep_129,rep_130,rep_131,rep_132,rep_133,rep_134,rep_135,rep_136,rep_137,rep_138,rep_139,rep_140,rep_141,rep_142,rep_143,rep_144,rep_145,rep_146,rep_147,rep_148,rep_149,rep_150,rep_151,rep_152,rep_153,rep_154,rep_155,rep_156,rep_157,rep_158,rep_159,rep_160,rep_161,rep_162,rep_163,rep_164,rep_165,rep_166,rep_167,rep_168,rep_169,rep_170,rep_171,rep_172,rep_173,rep_174,rep_175,rep_176,rep_177,rep_178,rep_179,rep_180,rep_181,rep_182,rep_183,rep_184,rep_185,rep_186,rep_187,rep_188,rep_189,rep_190,rep_191,rep_192,rep_193,rep_194,rep_195,rep_196,rep_197,rep_198,rep_199,rep_200,rep_201,rep_202,rep_203,rep_204,rep_205,rep_206,rep_207,rep_208,rep_209,rep_210,rep_211,rep_212,rep_213,rep_214,rep_215,rep_216,rep_217,rep_218,rep_219,rep_220,rep_221,rep_222,rep_223,rep_224,rep_225,rep_226,rep_227,rep_228,rep_229,rep_230,rep_231,rep_232,rep_233,rep_234,rep_235,rep_236,rep_237,rep_238,rep_239,rep_240,rep_241,rep_242,rep_243,rep_244,rep_245,rep_246,rep_247,rep_248,rep_249,rep_250,rep_251,rep_252,rep_253,rep_254,rep_255,rep_256,rep_257,rep_258,rep_259,rep_260,rep_261,rep_262,rep_263,rep_264,rep_265,rep_266,rep_267,rep_268,rep_269,rep_270,rep_271,rep_272,rep_273,rep_274,rep_275,rep_276,rep_277,rep_278,rep_279,rep_280,rep_281,rep_282,rep_283,rep_284,rep_285,rep_286,rep_287,rep_288,rep_289,rep_290,rep_291,rep_292,rep_293,rep_294,rep_295,rep_296,rep_297,rep_298,rep_299,rep_300,rep_301,rep_302,rep_303,rep_304,rep_305,rep_306,rep_307,rep_308,rep_309,rep_310,rep_311,rep_312,rep_313,rep_314,rep_315,rep_316,rep_317,rep_318,rep_319,rep_320,rep_321,rep_322,rep_323,rep_324,rep_325,rep_326,rep_327,rep_328,rep_329,rep_330,rep_331,rep_332,rep_333,rep_334,rep_335,rep_336,rep_337,rep_338,rep_339,rep_340,rep_341,rep_342,rep_343,rep_344,rep_345,rep_346,rep_347,rep_348,rep_349,rep_350,rep_351,rep_352,rep_353,rep_354,rep_355,rep_356,rep_357,rep_358,rep_359,rep_360,rep_361,rep_362,rep_363,rep_364,rep_365,rep_366,rep_367,rep_368,rep_369,rep_370,rep_371,rep_372,rep_373,rep_374,rep_375,rep_376,rep_377,rep_378,rep_379,rep_380,rep_381,rep_382,rep_383,rep_384,rep_385,rep_386,rep_387,rep_388,rep_389,rep_390,rep_391,rep_392,rep_393,rep_394,rep_395,rep_396,rep_397,rep_398,rep_399,rep_400,rep_401,rep_402,rep_403,rep_404,rep_405,rep_406,rep_407,rep_408,rep_409,rep_410,rep_411,rep_412,rep_413,rep_414,rep_415,rep_416,rep_417,rep_418,rep_419,rep_420,rep_421,rep_422,rep_423,rep_424,rep_425,rep_426,rep_427,rep_428,rep_429,rep_430,rep_431,rep_432,rep_433,rep_434,rep_435,rep_436,rep_437,rep_438,rep_439,rep_440,rep_441,rep_442,rep_443,rep_444,rep_445,rep_446,rep_447,rep_448,rep_449,rep_450,rep_451,rep_452,rep_453,rep_454,rep_455,rep_456,rep_457,rep_458,rep_459,rep_460,rep_461,rep_462,rep_463,rep_464,rep_465,rep_466,rep_467,rep_468,rep_469,rep_470,rep_471,rep_472,rep_473,rep_474,rep_475,rep_476,rep_477,rep_478,rep_479,rep_480,rep_481,rep_482,rep_483,rep_484,rep_485,rep_486,rep_487,rep_488,rep_489,rep_490,rep_491,rep_492,rep_493,rep_494,rep_495,rep_496,rep_497,rep_498,rep_499
0,0.29653092280220733,0.29206830495030134,0.2981007675903841,0.29738873846873354,0.3337697344627425,0.3135536882568314,0.30178765661697604,0.2821914186949177,0.30238996323871004,0.29508363145740046,0.30447683375344575,0.3003283134848078,0.2926297145593633,0.2925065912064543,0.29665536918514623,0.311570137400549,0.2993639981410513,0.29139312148750796,0.2860176052208125,0.2884249773123703,0.32715024213012495,0.30037677485679015,0.28828952500389315,0.3039766543974943,0.30273723421467996,0.31460480105974875,0.3071969694646847,0.30216793268146774,0.3006083062246956,0.3046849401064202,0.2946048818953261,0.2975578062163443,0.30335390459728806,0.30046484415104746,0.30079872262507423,0.2988911034771599,0.29491624133001915,0.32535288859431855,0.28407484472444383,0.30025756815393423,0.3059136727985822,0.30163194359335743,0.3228564622740231,0.30262995477519616,0.30376780854565977,0.289556765878274,0.3314292045392297,0.287786867386321,0.32215462428572195,0.30717957046595634,0.28707065899681145,0.30647344122829495,0.30183761398938447,0.2993699040982446,0.29826819805022853,0.298592970002521,0.3067587515695161,0.3054442463682819,0.3163652601612902,0.29854484237698703,0.2930273803256414,0.2883753973781799,0.29782891603225387,0.2949121475353702,0.32252514754485884,0.2995299970757327,0.31587838416029734,0.29012120461989943,0.2874650750484339,0.2951350564837055,0.3154147088706384,0.3211719042056214,0.29425575066962983,0.31422632950391716,0.2904127153800373,0.3040595187265026,0.2903854419048841,0.3037802731885436,0.30626347722776964,0.30160352491403036,0.29498824049781147,0.2919498090139907,0.3348988400144612,0.2987430723236989,0.3031746624377421,0.29919954149736283,0.30906411232022696,0.3114496082164921,0.29052569282211055,0.2933389740641076,0.29399508422634935,0.3082780913504899,0.30262179048432475,0.29159139820443725,0.310272821292903,0.2927466278752102,0.29192527573431776,0.3047325250399819,0.29671613560272664,0.3154387807557695,0.29806926908175757,0.2892055461613353,0.31488382436508533,0.2889054819227589,0.2917782752817626,0.29227574127793454,0.297467210444713,0.29890752968927264,0.2839870297793756,0.2870493211178183,0.3000358419395276,0.29690451553552777,0.30261740774715856,0.28806170204385034,0.29609661749502336,0.2960296886496516,0.2905849071076657,0.2920399315277382,0.31494882213707326,0.29546798162825494,0.29712783049716507,0.29702980585568195,0.30912385763821576,0.2955474301000127,0.289303702707229,0.2958158776796075,0.29550362798889734,0.29185533304503586,0.2980371449779845,0.3000509170352106,0.2911267840628632,0.3056393705057766,0.2913746153334407,0.29180915145972597,0.2945810577440791,0.3140268875870022,0.29488271425634094,0.2934363276376194,0.29421241025109585,0.2918751376868608,0.3004006482350836,0.29522890206263286,0.2846476728139101,0.290551881935112,0.29577285536006015,0.29008419159607,0.28987633868193496,0.3057308359715941,0.34097736928524386,0.2909748668760062,0.3061817300817494,0.32337796931337814,0.2944282160072569,0.2922319919378482,0.3160296854793906,0.2898025979197027,0.289473192602581,0.3090997978443334,0.31132302824576186,0.30240676770147223,0.3153527386695717,0.30909423556552096,0.29515704474342486,0.29384369285931705,0.2926137016088767,0.2861223770025517,0.3116365724310025,0.30055384439012917,0.3082633887699421,0.2981237008499565,0.2913149869138607,0.29942262056139,0.28643592946409624,0.2839655576899318,0.29933974364434374,0.33058731602309266,0.3000599736381362,0.30411084146065964,0.31439449204010866,0.2851931511492186,0.29205446145340574,0.3116770277969437,0.3068732271930534,0.30268362606769605,0.29440638033246314,0.3164287843113896,0.2996293216187881,0.2831353310025367,0.29628365591395983,0.2877036001209382,0.2887475128501591,0.30870642591763275,0.2913720533120264,0.3049192894925984,0.29143150425614717,0.30952641103232714,0.3233570681316015,0.31379223837255144,0.2906388631740393,0.2934186167589579,0.28596504228167724,0.29727761464444746,0.30698137177053175,0.29869564712395485,0.30014434868871886,0.3272455113186248,0.3083211328547101,0.2996096346158484,0.2839195544928538,0.30899440246401955,0.33227705078712827,0.30731596484811174,0.2917725765842764,0.33106197142187355,0.29874241422228287,0.3084265174661945,0.2850258215601991,0.3020988237675248,0.3009531316301454,0.3074132614209587,0.31993743588646206,0.3006648069702218,0.2926647064925011,0.3105981630005506,0.29194358886751,0.30228928459995175,0.3104797858274656,0.2885617768475044,0.3082000080171826,0.29984291953035747,0.29492050287050225,0.2948056598066991,0.3373889936307456,0.30104523711906966,0.2962400819889188,0.299939764593869,0.2981757009682969,0.28527496533702457,0.2968554849330329,0.28785441057591565,0.33215803428884494,0.3167855826074376,0.31070717700812606,0.29879592786988773,0.3105904230009115,0.3194572696414528,0.30402035480095263,0.29985164310085705,0.2934679018509333,0.28750598809625083,0.2889638192082852,0.3214284212031359,0.29136537804937074,0.3024908162606884,0.3037941662428519,0.30695248336217984,0.3108183989890622,0.3176952059786903,0.303054158052931,0.2887403194764406,0.2952348026772098,0.3134488201598454,0.29520988113893776,0.31311132759216936,0.29537985119276133,0.2962927353496721,0.30103533647627884,0.33010291759195154,0.29017854720610015,0.2874677914995796,0.2987926008617488,0.29637711567468156,0.3008403888461196,0.3015874405137115,0.29351415034648937,0.294743560140725,0.29653640750503296,0.2945043775015628,0.29781834019527725,0.30190698850962516,0.30050475166624074,0.2976025873172773,0.31467037138601706,0.29683215937645346,0.3001827329342165,0.3002730882914094,0.29697105890850756,0.3110647277372439,0.3022295203024602,0.2986145852585019,0.3223212842782739,0.29434974160286875,0.2978809183307517,0.3229774876975942,0.31541076686952274,0.2950738599126682,0.28371984415739526,0.35211075177773055,0.30668107499486597,0.29525497487945646,0.29676346795882774,0.30574360936323514,0.30240003373843577,0.28868269594255846,0.2982721845756354,0.2971219502277915,0.3008122380764312,0.3132346405013148,0.29846652964244813,0.2938841472117272,0.29918232420327456,0.30653839403915006,0.30358865314549577,0.3140669151763889,0.3100124314515932,0.2883638320016467,0.30391439543732196,0.30627962351050575,0.29639043431471407,0.3041365097233767,0.3020356283632969,0.30027549534952824,0.2989296252208383,0.3088632807780592,0.29055132087322577,0.30119918302289606,0.3269599020856353,0.3122992588963248,0.29458321233329393,0.2989081412652561,0.3066555703129624,0.2901941163508075,0.2999925303270398,0.2887828730929784,0.31975069547287166,0.30762690258182207,0.3067330210397713,0.303961079745978,0.2951817112804338,0.3325063590142662,0.3046505319398615,0.2929200110613581,0.292908319834605,0.3032633364909295,0.3177080925948974,0.29134523443400323,0.28807774830765903,0.2963593076465316,0.3232281671335558,0.3007171765587489,0.30976997830421943,0.29401349108678637,0.3027794141071932,0.2969412328822647,0.35093961077246444,0.29473454078458017,0.29360705440184104,0.3162211903061823,0.31164635376270616,0.28898846943814227,0.3003877224985935,0.2923331530913015,0.29896573755281985,0.30636429461644443,0.29472417721762717,0.30489077719906776,0.29238563113795335,0.31032421914403424,0.29495834211613275,0.30091009392866097,0.30145783383229235,0.29272643111669855,0.3028265142254406,0.29950311165032284,0.30223009735407413,0.28954031399991714,0.3324867936377694,0.3131701051100044,0.2920472519107666,0.28820072847188,0.2877494909528527,0.32190845741975654,0.29961934051667505,0.30885809492893557,0.30489921140150544,0.30304627095883785,0.3072972702770534,0.327235824193988,0.2988244067856967,0.2845795680246501,0.29948467940817786,0.32138127102985226,0.30864307123210805,0.33557951893941224,0.3246919935799461,0.29400304135575633,0.298133782185935,0.28776241976826034,0.3081498324059406,0.30222597597292683,0.2899748258998604,0.2941031394236327,0.2928754591913844,0.31294537352894264,0.29332801745373516,0.31498197575208814,0.315850826133515,0.28403061064220625,0.30741601451977146,0.30684971664168326,0.2994117486284328,0.29439278848720907,0.3079550709145088,0.3010210239640806,0.30951536250909456,0.2953366210310159,0.2931556903869164,0.3040831250097742,0.2984183978250834,0.29983334374766607,0.3399965753730625,0.3048016918832026,0.30361518097351153,0.29493818509791214,0.31826802351269684,0.2986883541134141,0.2891105947651023,0.29239629989917326,0.2946254909860132,0.3010983473042639,0.2891699349925541,0.29391707843818937,0.30125650752075794,0.29817103789776034,0.30161527752625866,0.3089872765128213,0.30419914870110076,0.3048424778904296,0.3262614868273306,0.30408281111772534,0.31038022213325983,0.29184178503482616,0.31109855251701124,0.30135893166569583,0.30044173974077404,0.30262306767640207,0.28834307682316584,0.3084242150215178,0.31510809798279377,0.3067341167520603,0.2913475956404738,0.3135136317507081,0.30732839156112124,0.2969272908646621,0.28958331747376215,0.28464946336100805,0.30219534873446824,0.295937541666004,0.29636397648582685,0.29790354629804744,0.3027535045275935,0.31307133291114553,0.3059086023151724,0.31306884782780475,0.31108664953619763,0.2998765725085969,0.3027172989433565,0.30204676919083195,0.28624468713429024,0.29022225170915783,0.29424848338378246,0.3024043210209512,0.29016589202249465,0.29929043384200044,0.2964530143003462,0.30313288258232873,0.2922538404485916,0.2923313180939234,0.30996611809784275,0.29538871700701447,0.30111416182971695,0.2989211356999243,0.3017146901954361,0.3012123823913845,0.298116600402767,0.290550607357814,0.3399557826060503,0.2884045508236607,0.30061500873207747,0.30548851441105435,0.30554226353846825,0.2846714984068945,0.30269828596924253,0.3014040101083537,0.28618481206872465,0.3526173171221067,0.3371376319238598,0.2961609564618522,0.3136621220246604,0.2955629645500806
1,0.32117700070915034,0.31188527005563405,0.28587818690369715,0.3051667803423899,0.3287626609663259,0.29232653838979417,0.3114515357914177,0.2896357636779453,0.3110379392158368,0.321760217496755,0.29487818303572666,0.29410304073788296,0.2973677410033252,0.2918199372353918,0.3051217057181668,0.2977958609125308,0.29292826975045455,0.3017001880133653,0.3363401375456847,0.29354693203108,0.30768825327245086,0.3028188053384909,0.2989243848734094,0.2943952787284281,0.2995849858318248,0.30675265496984444,0.2995056963962456,0.33674158811930155,0.30196475221792696,0.3105928322507789,0.2852497861187807,0.32107303988998714,0.29566942997338097,0.28334351826502385,0.2918640630675987,0.29605759822291616,0.28433631119670894,0.2917621956472267,0.3003161507869399,0.3046688357984218,0.3302476600947789,0.32684556314894075,0.3198379327238769,0.30078551062672226,0.28860300041350373,0.29547561541635503,0.30325634210902364,0.2951247884557842,0.3120049641993209,0.30429156142086333,0.29855284447041675,0.3084732339170819,0.2914085612511441,0.2913580790823468,0.29246307286864703,0.29517440781921706,0.3018308763861996,0.3183785285057975,0.3100167995581084,0.30805358625947105,0.2948174428371981,0.2923133542404435,0.30863271455755986,0.2942351140966432,0.30254598402686317,0.29633699139291786,0.3159682037680331,0.297551299455655,0.3142722567066954,0.30218733315314844,0.29312791837074115,0.32723261580179697,0.29281603688436075,0.28967616465311286,0.3118883574150633,0.3219384462554447,0.2975358080609172,0.30777837673054836,0.3004400577684212,0.2925347351287046,0.29096932766075867,0.2989333542640902,0.3009551174420021,0.29740009189492733,0.3110087069527242,0.3131201993141193,0.3053499310210731,0.31052163401818367,0.3015871320251926,0.3109661238496654,0.31225829631136975,0.293973057156029,0.31074598883133253,0.29171385157433505,0.3059028542479989,0.3075429873311086,0.29714791754998887,0.2994116271922233,0.2985078755635093,0.2953619763470765,0.29496384229502237,0.29980923872446513,0.3359162262518863,0.2885844218287058,0.29743677943948865,0.29837308044462285,0.305342537870835,0.2910986979600232,0.30683946249915056,0.30883868154343164,0.2961049086487948,0.29660853433228274,0.2948143288214315,0.2852496245395474,0.2942995795865962,0.2985580007906923,0.30830281323465225,0.2994988949619503,0.2955647592967503,0.29328587128222183,0.2992375045734248,0.2916088454357455,0.29680324872292674,0.3083899328580123,0.30062860452116,0.30040897260288685,0.2879441421286841,0.3160897877454628,0.30477986362697485,0.2937266010470413,0.312765457710912,0.3091027203914924,0.296988323078823,0.2902712523770003,0.29504515285193633,0.29642669074885974,0.3194481152202246,0.2948275842876703,0.2914360211841578,0.28296602663398407,0.2976043791269026,0.31177869945292297,0.2877348369046574,0.2907826214585305,0.31284430458055845,0.28740667758248695,0.29300928011854255,0.29246278419331223,0.29482321341710016,0.29303381398634704,0.3033018083281599,0.28316875159492483,0.2853934054612475,0.2909494379445718,0.28748671635748124,0.2882727825462192,0.30455809111638493,0.29402016041952295,0.3034008053397879,0.30233281387329625,0.318581624961964,0.2939957810159141,0.3119450939972467,0.3178327688052305,0.2826249223553149,0.28960471488900535,0.28953956863291597,0.313070295252692,0.29417547805711636,0.2933084007465404,0.28982763839324044,0.2934593727974891,0.29217033341137205,0.29853794128207656,0.3204794121816713,0.300748573806476,0.3063914428855873,0.3033752401942692,0.3037070304382011,0.2979828145207819,0.2986949883439074,0.29126486232724563,0.3047739174038197,0.3202706761979473,0.3137128307031471,0.31432922051611645,0.2930002778074171,0.3145713970131394,0.2964554804835316,0.2963243958526977,0.28523566770666464,0.30352337817726716,0.29697417309099794,0.29592046299667996,0.28596305855098003,0.2899840143924763,0.33887596014695365,0.33264125479285866,0.30498212757151555,0.3077781995628044,0.2989786163737349,0.29466129180571576,0.32980765247445004,0.3065911229867836,0.312394872687754,0.3087635121196203,0.29739400115611864,0.31089785479205295,0.28311025991898775,0.3208199186897319,0.2841321039416751,0.2891703463616015,0.2965053763811968,0.3524767571850197,0.3201605190546628,0.30361539851415165,0.30769555351639005,0.315862951001895,0.3073152716464437,0.30123117650731934,0.34278551046202455,0.29570813600946927,0.3200431354707084,0.29307678139120785,0.29084173275723896,0.2846928585400998,0.31221771546138405,0.2960912612591129,0.29930135822572385,0.2871149733245696,0.29482511371668807,0.2900792892981536,0.29454333883265177,0.29689979266149175,0.2933434617152605,0.293869705182074,0.3379844400386124,0.3042561357056366,0.29711240143492956,0.2949971475449441,0.29435079331723785,0.337420508843405,0.2940318516618352,0.35918302599629465,0.30065181991503387,0.28873999884532203,0.3187561232028247,0.2926600501161758,0.30754167134362836,0.29208827518091174,0.30553330451586735,0.29407624061151577,0.2933009771431448,0.3115722199723174,0.3029040505934743,0.302100553036878,0.29760911582180116,0.33223078321702065,0.29607264937079025,0.30718293792923534,0.3150291195286881,0.29120870684952427,0.30401911112220104,0.2961927205950133,0.3101016925490995,0.30522031864815025,0.30518246908924973,0.3087558912641749,0.32442281509433674,0.31432519372216605,0.3134606973072301,0.33006261148526705,0.2909985212677141,0.290990389791686,0.28481104886350883,0.30088620024809987,0.3156246065638937,0.29926567698199963,0.34452174368954225,0.30677563014760606,0.3051956754133056,0.3074885596795455,0.29478942396473445,0.29704337094733674,0.3079975275360212,0.3024007253742097,0.30079040607617075,0.29774913803773695,0.2948005897702269,0.29645280572387606,0.3105838037564119,0.30923631585273503,0.28885835750959077,0.2991522851416545,0.3202458309000148,0.3025445197979336,0.307436026779054,0.29847373908217556,0.3005880747609312,0.2933927160630156,0.2875267992944296,0.2954969855863765,0.2918744335428473,0.31531875193215003,0.29576225750658164,0.3108565097107587,0.30617526020263786,0.3047764793725921,0.2927713380405551,0.2985715951601572,0.3180788740786167,0.30005743214091085,0.28656183872088536,0.29144892051332394,0.31464676990094714,0.29304310305184766,0.2979379619016309,0.2940638243356622,0.3059409361552576,0.2915472054112821,0.3033633256893838,0.30297171715288057,0.3015074659673929,0.297595743045989,0.2906931489558228,0.29160558586710505,0.30823115677342877,0.2942818655260398,0.296135459363538,0.2926282909266208,0.295003739114509,0.301386838744287,0.299213484165764,0.3006395123356721,0.3060683215781462,0.29808811119019685,0.3611464545934745,0.28342736729459383,0.30727071896459807,0.30777383176419904,0.3095835049551426,0.30314327350686404,0.2927310546657448,0.3292393203636836,0.30152808418758165,0.2936147721712187,0.3182890460471925,0.3041926974393697,0.2950833068552779,0.3111834388732974,0.2975544567045637,0.28946627680399184,0.29575703228928907,0.3058143721882599,0.30627116437997437,0.3050474759533658,0.29945758472855505,0.29937475626103244,0.30224465061088035,0.30495368931095795,0.3118643165183671,0.2919576702761042,0.2886676566957303,0.2889694322957634,0.2998473685779649,0.30096503975421146,0.30438162576518335,0.3240184803737757,0.3087831940356206,0.2972164954153508,0.29730614849132636,0.29060835513381755,0.30735536032131155,0.2939022959490747,0.32817378211268633,0.31106903261723723,0.30279578447491284,0.3084375287517448,0.3008167235818847,0.3083980340764901,0.2932195227653486,0.3218952676360136,0.309446459697183,0.2928889811616783,0.2907229452544984,0.300996900616885,0.3004114192881814,0.34807841920295873,0.3052144822784046,0.2970146082888291,0.2969333491247909,0.29286727317826583,0.29818228508519096,0.3215039577049331,0.30465133190139515,0.3200024460685886,0.2966908743137784,0.2930031068886413,0.28601148776098073,0.3175209561878789,0.287326698545795,0.29969130910700825,0.32206383071159966,0.3183946687978253,0.2891252493135721,0.33568651799597116,0.2910377885455897,0.30263018555982624,0.29442207406220683,0.3425343275274667,0.3058380070718713,0.3156026512855784,0.298543289132308,0.29852747344336555,0.30003782353944397,0.31086174734770244,0.32599389702337755,0.34914977960793225,0.2882056902842428,0.2871763731668314,0.2841887478318355,0.33120128726438314,0.29793034862265294,0.3069802450870436,0.3123279387888954,0.2913690552760592,0.2997834769767708,0.2913916721484141,0.30947185322024146,0.30194232295306533,0.2876997149796695,0.2977401614546761,0.29874665782601917,0.2967426341782025,0.2941991968924915,0.2974961309768479,0.29413633293640656,0.2924334291738075,0.2994465384140978,0.31227253483108713,0.2961653630921487,0.29696509825242456,0.32333471916675616,0.2926006315078023,0.297191622752922,0.30472642414720397,0.30811540677642,0.2944106854914896,0.3156283781987175,0.29958410626987353,0.30214903314728464,0.30273907549496654,0.29618748766695746,0.2858251300766017,0.2965268693327505,0.30231341319226723,0.29946909375244724,0.29168456894967876,0.31133099754341537,0.29524186697030647,0.29977652329506455,0.29788977801165917,0.31284795853306163,0.29426363300087943,0.2977681854745845,0.2902002626683102,0.2888862655000097,0.30830782933782447,0.2956399113287712,0.29253504306293476,0.28873568179944414,0.3087763067054379,0.2991101737209129,0.30306934505437033,0.2940806629091282,0.2973496084511599,0.3177562840540438,0.2936062899044643,0.30893657226748866,0.29520259741920374,0.31564780198837117,0.31964508227013133,0.30052108813275885,0.3018554337382918,0.3116702402052,0.2992351490812335,0.28931153914212937,0.29100952367607275,0.29404909342022956,0.30132990271638177,0.2980541275363254,0.30120605921180194,0.30058566819261057,0.2926628682590726,0.2838600130836846,0.2951985606818885,0.2968608189981016,0.2997353465383016,0.3021621699121973,0.33723368148602517
2,0.2951464099032129,0.2992869321145842,0.3019519530439532,0.2868112973397231,0.30381560809553787,0.30823356315230177,0.2902575907330131,0.3023584395907124,0.29288624088650483,0.2943871425488088,0.29860812725157626,0.2980194924635461,0.3011158718416816,0.2884111940599525,0.2996741230574291,0.2914628739832711,0.29513202745505496,0.2950448441750265,0.340557894346896,0.29139048574284504,0.2980546016191189,0.30827032637162916,0.30088021698486067,0.2976150906854333,0.31154861603568756,0.2985954373856614,0.31416317890254064,0.30191791204493906,0.3205267694582631,0.3049115236709911,0.2990757003280822,0.3037726377942524,0.29440702634192617,0.3062374391249604,0.30806701265336073,0.3514608352313816,0.3040122246484819,0.32878836368769504,0.30828882416003484,0.2874474447273244,0.32045551841310205,0.32423168089582577,0.30851477912118636,0.2993055927105489,0.3120644906955122,0.334976139601471,0.29493893976893626,0.3058363421086332,0.3090092387249701,0.2949613805516525,0.2841369248713047,0.30440774220774003,0.2950435863007749,0.3166980997347921,0.2933582575978705,0.30815271336106786,0.3059116428980232,0.33064718003454263,0.30694372119791763,0.30550227745644726,0.2960514057230557,0.29027827648939075,0.2966412503931147,0.3202101458090775,0.3060268423881426,0.29757887368047137,0.30640912709205576,0.2867736574652539,0.2981536534738657,0.29901654928695776,0.3079648406350692,0.3247528116647794,0.29174690443920936,0.2970144835139317,0.28793650634578616,0.3074820191947186,0.2932979560369329,0.2956621577498986,0.29651951026670337,0.2999750582548496,0.2894806765621661,0.3056435549550779,0.28904176248328994,0.2926968729386278,0.28925731156796664,0.2935203030758058,0.30782528486756916,0.3035519777789707,0.2931910241160582,0.3028946347761818,0.3069757015614208,0.2982260936598534,0.3018059688212735,0.2928317498866865,0.2989394684850758,0.2970968846995204,0.2936389069337704,0.3045753093893492,0.295162183430295,0.3027382660362851,0.2975373858244554,0.298181863674688,0.31515579543137895,0.30088010689674444,0.29554953365111036,0.30108728383066524,0.30619973011855317,0.29190280298307636,0.29911479513699246,0.2917099666520285,0.2810374861522716,0.29201417937914664,0.29606031364828367,0.2977851543183009,0.29303573079159817,0.30046742658801806,0.30483187458270955,0.29139907386144787,0.3009091275889092,0.290300990763092,0.3018602573351291,0.2931900605395791,0.2960573030890169,0.3089691503533812,0.2841959904857812,0.3028884404670401,0.29655034885738324,0.3304677260684262,0.304284311561646,0.30555276596594205,0.2938224757514244,0.3003674178313932,0.3058861250099149,0.2891942054165257,0.30587417839658076,0.29731100247995995,0.3189919491890756,0.305421932033259,0.2843024451174208,0.30873056849687763,0.2960009676360852,0.30516936459941835,0.29652631980376587,0.2916675300478814,0.32781720052708313,0.3082964865337049,0.3065586784878737,0.28799398906993695,0.30262694323671874,0.3162801326200571,0.3228446501676282,0.2999184124046629,0.3050654381173986,0.2883077261251715,0.30886981499614546,0.292508834094814,0.2915758486109853,0.3085147809356022,0.28765648618716744,0.2906162023169771,0.31186966683578515,0.3019432628798897,0.32235317342894476,0.3100157952862053,0.2970609658433211,0.28917654683153343,0.29813030492353576,0.32202645913721284,0.2997809984967391,0.31026597728222977,0.30924948100581084,0.29920623705211163,0.28904129425054687,0.2894885431595451,0.3138840414504839,0.30806478495713996,0.30548612940583275,0.2986502364968951,0.29161342763241765,0.29554190878138187,0.2872133354147797,0.2972322560295214,0.2992720206184326,0.3056722023045137,0.29813427095167633,0.3127269025140665,0.29122378028021095,0.2900915329270697,0.2869663265803363,0.2886525016000782,0.31081819783286624,0.3089251139281378,0.3090987631113113,0.2987859590226998,0.29107731054109254,0.32901403317839695,0.30427626167695604,0.30339082563885317,0.30653302119434644,0.2930394514298257,0.29229069784022965,0.3132790796788272,0.29706775282270015,0.2945235590339893,0.30244669508337046,0.30117375328268753,0.3004412643642014,0.31369182754269626,0.2885598584896515,0.30263074494653386,0.29153275307058546,0.3143371926571731,0.284020878536658,0.3040296136031349,0.28997213412198947,0.3333383610362817,0.30141908911407167,0.2958588109934158,0.29445463168834485,0.28527240631122713,0.2976315692984121,0.29072059276882134,0.28750698684042697,0.293869842796986,0.2886368009583196,0.29893914285306206,0.29832556502139995,0.2897083053482093,0.29909294934652075,0.2886990166877234,0.2865175666863336,0.3040930121442675,0.3117138726583811,0.29008101335188946,0.2865759074917265,0.29710481069647254,0.2874185445348075,0.3028915752106619,0.31049332266770124,0.30038777294564867,0.31860533251728623,0.3062288535880769,0.30280274600977564,0.3534404809692612,0.2959530081501761,0.3072327311907762,0.29243396312894604,0.2874166227277849,0.32336369866788817,0.29287490045052716,0.29940676983698905,0.30236774352608636,0.2934149180589628,0.3339014857679993,0.30097046061943583,0.3061519674146059,0.31547994014262837,0.28558405186551356,0.3032799267676528,0.29401420209079426,0.3054313929387972,0.3164101244256309,0.2997585046906307,0.2922253823633253,0.31825903989506965,0.3106053130435617,0.2928454497005662,0.2995173492320463,0.29686888685199725,0.2942195330280972,0.3015099671220208,0.2930256243375538,0.29959673125093467,0.29468121729079283,0.30344983125733094,0.3322737053326129,0.30032216916916005,0.3034301454404496,0.30703777456760617,0.3219216678011656,0.3052396659659961,0.3195815287575293,0.29580551199662025,0.288335381741402,0.30295426405452314,0.29789338676922494,0.3067246727977785,0.31266940669946475,0.3121969176582884,0.2943033591545904,0.3136980195130702,0.3024523677797769,0.30136375897356465,0.2907171279354801,0.30532926289221207,0.31480959904667405,0.2938945306822203,0.3172166353972189,0.34710369456027124,0.2896370049911001,0.28600536762628925,0.2936512244770689,0.3012193999680398,0.29013018714165206,0.30812302572550365,0.30638747328221,0.30488566492907104,0.29917990265637207,0.3014670686506297,0.28991195130012276,0.2927154597346854,0.2855011248408657,0.294074687993429,0.30771980016179434,0.2947237817524401,0.30048147659532154,0.28987710095624103,0.2884142006456656,0.2945871103646055,0.3018951784390377,0.2985565538471401,0.2906719118419602,0.30755953091440424,0.30068504998815937,0.3007146952952849,0.3017583078744806,0.3126272863605883,0.30940795220817974,0.2931708507792562,0.2999232860508304,0.3001059927145405,0.29810564765761616,0.3095157765926082,0.2954520332687532,0.32257446085411795,0.3462047345136217,0.3044970376496713,0.2850526068390442,0.28816033849796757,0.2977096703770871,0.30878269559462435,0.2891291671621986,0.2951870599672616,0.29635038193783153,0.29576338287936565,0.29676614502968784,0.3016328550506052,0.2940872508376803,0.29932606332842626,0.29627035259126433,0.29038162689009195,0.2944737406013367,0.3036440494104042,0.30915391253852764,0.2944595585042127,0.28989657733675,0.3028522363476541,0.3350488178063523,0.3074865354184911,0.29380229938313895,0.3006932447992936,0.2896030924785924,0.3065752027150358,0.29488422939741576,0.3226094409400206,0.2919186820375813,0.3008592928405925,0.29699101847769427,0.29693663737000675,0.2912077977929747,0.29640284986803855,0.3156541839651251,0.2968410471178667,0.3045607155403801,0.31092407938224836,0.3221469554233688,0.2967722441234213,0.30145655024161677,0.289129147927869,0.28955753097713866,0.3019482502736271,0.29951784710115253,0.29734302714737526,0.3076656496428021,0.29414637744598365,0.3022085296797897,0.2958645635404399,0.30515192039634165,0.3225928413180832,0.2994411783423182,0.29987206131085636,0.29692922494335156,0.295587571785178,0.3364557954653119,0.30573235190226916,0.2841971208791039,0.30186893402392084,0.2958674330234449,0.2935726408003229,0.31176234339607506,0.29484509218630356,0.3106236183362245,0.29140396803579616,0.3039067744288664,0.2837819603700795,0.31195809047658596,0.30327104979534486,0.2929165383481837,0.2823000177165198,0.3054805081595239,0.2996018882772059,0.30308291398034864,0.31135757077843007,0.31094662112603455,0.2953819525574755,0.3141299923719062,0.30373662983209326,0.3305507587284254,0.29138148253215473,0.2880144777292777,0.29075637152312456,0.30875464367072053,0.2935648835321979,0.29825966656722785,0.30632731905424154,0.29274503310159006,0.3147577852812691,0.30022856043488527,0.3044682742716508,0.31297913450141296,0.29396604766410717,0.2950784873796376,0.3118884154199195,0.2839435581879984,0.2922614169340013,0.3173411180683204,0.3111547289083708,0.29275975836154905,0.3067546009631016,0.3258760973636214,0.30451478204967436,0.30595363325968106,0.30903531970699116,0.28866322213538353,0.289604423443132,0.2985437361022284,0.3143809326970236,0.3049726518547443,0.3009447715421242,0.29150903384559457,0.29642583545086787,0.2941989122930774,0.3005776280408152,0.2901786116017782,0.3089903062074279,0.30468277695159945,0.2912326373714244,0.3071039013042042,0.2948457702506923,0.3049496726017752,0.2950111712858839,0.31405646491011824,0.3385598037549432,0.318343228782546,0.3107129396855398,0.28685702114672973,0.31089405921401564,0.29380187517459283,0.3019930227248997,0.2946240621252866,0.3011245046334457,0.30079501605134074,0.29251575510449723,0.3179612850377396,0.31015079169777704,0.30768056484198525,0.3110581835321388,0.3065929309437221,0.29892488216692714,0.29956591051995335,0.3065649703667296,0.3005783601832519,0.3008986392173851,0.30062953033241946,0.29907918853603127,0.30725906034550554,0.29351327584794606,0.2900724603103056,0.2901798209931173,0.2989448724418846,0.3061816538552595,0.304435582165009,0.3007023320076334,0.2965813698347687,0.30916142675743774,0.30448093009282673,0.29184344322436206,0.2833533993896481,0.29634061073527296,0.3094455880889482
3,0.2952904812582468,0.2952641284530826,0.2962535402615579,0.2921649854376125,0.30644679191398017,0.29410690198489514,0.2959127576563071,0.2956700064344214,0.2905328705882478,0.29662785362466587,0.2957919332232821,0.2905579464612967,0.3013539598591783,0.28748355279941606,0.3063525826830959,0.2948846051916983,0.2889299582546557,0.3186413640583444,0.2876716082186944,0.2893243392614247,0.33418287028212157,0.29017794077908887,0.2869834602868979,0.2964884106148704,0.3107678598808214,0.29131529452109983,0.3042136021280637,0.2962373783419273,0.29028878422848525,0.30189896394661103,0.31134698637576935,0.30498037185588645,0.3036732088344967,0.2885018773449125,0.29608894878715725,0.2980808838512532,0.2866669214244771,0.3128878658092601,0.29647827671374644,0.2946141847432616,0.29343074803786634,0.30210242663916015,0.32098702473135554,0.2872977108576519,0.3445261311968929,0.30906895123539024,0.29148921365156344,0.3231490083985676,0.3106740589937854,0.3030270054090232,0.2882549066029213,0.34245137228180056,0.30847881680090067,0.29315344351520745,0.29506720506202017,0.29067734212203666,0.29861537924987497,0.33860307270347595,0.2862401144610843,0.2978010293968312,0.28850973336872754,0.2992684895689775,0.28730400475632006,0.29604280205593886,0.29924346220316445,0.3050353864116473,0.30246171326879223,0.30608617185871784,0.3152849031643208,0.31191024281542795,0.3444910402501094,0.3002569134657276,0.3326613547191089,0.2985895931445436,0.2928847552094373,0.2946673948645111,0.30302420690260357,0.3148196364690352,0.29219622864174055,0.29020397511330775,0.2848213880352206,0.28576696378368455,0.324950003036919,0.29501032645059644,0.298774222379847,0.30526175436853886,0.30314412898122955,0.3200723756556464,0.3179975345959016,0.31150071497118625,0.30193247101272513,0.3097329162046114,0.29956210155618873,0.2975573837532945,0.31575427624737634,0.30249141747762454,0.30020439465886917,0.2904482078014111,0.2915880702171055,0.2992451470140526,0.3094445959199993,0.3074963436345035,0.32802499259396667,0.30023149526959275,0.2967648303553647,0.3000160216553852,0.291246471169019,0.29312840559143827,0.2951154255846714,0.29941368370947197,0.29576455709045907,0.295881496075971,0.2943638749222274,0.3033677425124478,0.30417895724711835,0.28959430866864694,0.29969319088623675,0.2980482588121306,0.29525080589369035,0.2859283391872885,0.30824927254877094,0.2895700936989828,0.31573130774745667,0.2919856000104267,0.29277285980443263,0.3178939211118089,0.287724743753581,0.31040587428731375,0.291043075333537,0.31149583329502234,0.30383985186921,0.31797106937786757,0.2864994959275831,0.28802197889949616,0.3208851138465375,0.3199551617481625,0.2936205170284117,0.3001452047526851,0.2949283451293135,0.30364469927992366,0.30502230375961964,0.2972360785950631,0.2903010979780263,0.28471025983048537,0.3095232527529367,0.3046932975510249,0.30575498468423434,0.2904109548600448,0.3099487510352625,0.2975821655157517,0.3106765352118116,0.2968320646888575,0.324760900910484,0.282774113060024,0.29480110781908697,0.30216747527032045,0.30722124720140376,0.30408200652066253,0.30765041280263167,0.29497393150829176,0.32607320184936883,0.2990421434301189,0.3006493427818818,0.30052596369244566,0.294369247802585,0.3033910672788386,0.28924383550626287,0.30868468474934585,0.29919108925232907,0.3136418096720428,0.3004570897896219,0.29992619920681995,0.29218534697591514,0.29216492496402624,0.30332375321777316,0.3036363446376838,0.31307221656194195,0.2938808126431913,0.2988289297804347,0.2900223366341234,0.30548545288743884,0.288759534051223,0.29604965828852925,0.29689650517708543,0.2933890083828366,0.30567472979437704,0.29476080013478173,0.29198018159621386,0.2960317611549556,0.30273704675041585,0.2977554881851168,0.30742020160383277,0.298375355943045,0.2968977211967465,0.2865069987216443,0.3096538461515215,0.2999577045543892,0.30773562162164353,0.28917669307483707,0.296697412540522,0.29929377781382926,0.31392558759591377,0.28300364501598374,0.2990549650600742,0.3201970960553368,0.30030544935522185,0.28438242084036874,0.2925950307903084,0.2903708833284016,0.3356856205559093,0.2991280400042973,0.297435508480388,0.28987780947228853,0.3055609852637071,0.30303159689509107,0.30079202923921716,0.29099442827324973,0.296257181787977,0.2881034287924882,0.3101913547872269,0.29575430347248993,0.28877704145648647,0.2991020727858765,0.30410680151788433,0.2952365318342086,0.30847996805163386,0.30715408321348675,0.31295247596292713,0.2965526318482383,0.28877360341066366,0.29414766581861124,0.29911365398422596,0.2997695206820217,0.2942258728223104,0.29365319416855706,0.2962914499230127,0.28991983303637436,0.2966884500563922,0.2954447248065204,0.28948540862017696,0.3137557064949859,0.3179694170080576,0.2892152186417456,0.33453567726583827,0.29749912329601913,0.31270026530976786,0.2934038544292548,0.29931706034158073,0.301812977771133,0.2938079563447763,0.2903888311440518,0.3290011255583013,0.2896629825261917,0.3009680578613423,0.29128203639759,0.29772927418613926,0.3118328310661752,0.2991259049881678,0.29284810135710015,0.30470530505035637,0.3111417238887302,0.3062942140492778,0.29994323681254037,0.2934917022142255,0.32265647499852557,0.3011466592197379,0.3167497865822412,0.3060312722965957,0.3048455460648697,0.293426815800452,0.2907723676849436,0.30132669737510437,0.2955325148890938,0.300387051150266,0.2891610125379234,0.3068129171028025,0.2963240485910218,0.31731881188780536,0.2997761730301542,0.28886201758277524,0.28358748280859,0.32523865597538726,0.3052701372880934,0.3050009456310936,0.297588803813963,0.31436334189569765,0.29350097955650173,0.304182688326185,0.3087812813081465,0.31478096885070594,0.3186670973560474,0.28964816383003017,0.30594142788436857,0.2949977559239007,0.30381699175583454,0.3273099140350467,0.3068569743541655,0.29671162326092065,0.2999879942373778,0.2963733576405357,0.29397175047726143,0.28770116212595104,0.3217287423029501,0.293444193060454,0.2955557607207945,0.3133190525950281,0.2915665676194677,0.29910013240264344,0.30068180144371204,0.33640717693742583,0.302177021928416,0.2943776437967145,0.3143135961246814,0.32062395327351,0.2897406417366674,0.2914114081574781,0.28624693205681084,0.29796265183268683,0.290214691602812,0.29748597862610493,0.29832905182753433,0.295373113200328,0.30373878903984713,0.3196481740080692,0.29902007526568763,0.305808492910623,0.29122643078039745,0.2953522874885601,0.3010795945715226,0.3198656883386898,0.3139127694910573,0.29395263010432054,0.3132187436076657,0.2969934810623675,0.3122191078798998,0.2944295929803345,0.3210778312518978,0.2980436446775574,0.28643909712215543,0.3043223361805151,0.29609857068604906,0.2941515309024818,0.28561238181182264,0.2862622221668826,0.2960694092179998,0.291099036327333,0.3081102670798154,0.3397894157409727,0.3156780449142355,0.28636913233212835,0.3156579495544218,0.293802875301843,0.3136909315423707,0.30546279033576484,0.30550079158804777,0.3124350298642795,0.29761745759572267,0.2923714718403246,0.30567798543929375,0.290646092235209,0.3059153591904891,0.2986859209882146,0.2976421493558658,0.28969111378847945,0.3104132611086884,0.2890718944646698,0.29650697467125126,0.2886209735759428,0.29838577770877744,0.30122299625160714,0.3125993526215826,0.2879714627189145,0.2924647720407093,0.3107231539362433,0.3200686893042165,0.30195937322302735,0.3072095392756178,0.33196382651230294,0.2952669744619071,0.2937821090676305,0.2993594171059356,0.3185433398019687,0.3062069841055547,0.2971361386028236,0.30002615658966175,0.28292945697635946,0.31942031473166377,0.29754641337006266,0.3421156047914261,0.3006270196852571,0.30568005716063656,0.3109260852292139,0.2891118536072053,0.3017126476829826,0.2877368319378857,0.29449299358419684,0.32267575879078375,0.3083977833812389,0.303665635795735,0.3084140741059732,0.2894549086326107,0.3196113136635935,0.2876140311330019,0.3122883694539514,0.29183604928331386,0.3057241864406573,0.3046741150509493,0.2871296538212746,0.28950936071952954,0.32521239392982976,0.3017123631355031,0.30361386160302706,0.30662319762222173,0.29354399493079936,0.33458864371574387,0.2909046848777127,0.31220172846598787,0.32828865841736654,0.2903821841678062,0.28999711116997934,0.31379460420294547,0.3206917570974034,0.2889201225565902,0.288971604798987,0.28953236714571423,0.29497497762226493,0.2909011274562725,0.2969507097419687,0.2973112647599802,0.3028826347534372,0.2983353485791699,0.3047694421842767,0.30805830843405063,0.2952864983608099,0.30635524066422065,0.30107625378467173,0.295991414227102,0.30109125731889946,0.30671480202204454,0.299187310780954,0.3057145643158522,0.3118596341745059,0.3118312288633501,0.31055893233868626,0.292900095896424,0.3265464033448159,0.3118311555873892,0.29089765116403177,0.2849944975880637,0.31211823566241836,0.30340734588652235,0.29848689924213323,0.2968785638515687,0.2937083121168915,0.2953816940529983,0.29879695999315764,0.30373209484930563,0.2865935137324499,0.29761690809883945,0.30347530014568946,0.2914130123226616,0.2962797858823123,0.29544726122534903,0.3223885160193206,0.3129684285804283,0.3065586797938786,0.2971825932910631,0.3072233647718453,0.2908013125848717,0.2952801710888349,0.2842613116554467,0.29483043484160987,0.3166221576237544,0.2991278388945806,0.31016149306396085,0.2987741169548283,0.290853117825019,0.30547556316190827,0.29911891083138964,0.2975448352534213,0.2986913211491956,0.29276506428332616,0.2856078573621218,0.294697500968384,0.2894844838941148,0.2944794553735094,0.29837195001066463,0.29937799548949656,0.29325221576378235,0.2928081160954634,0.31310359787834907,0.32087587629731007,0.3147629036856318,0.3081779523372179,0.3111497638274705,0.3052373026646707,0.31310681635164367,0.29653057550195355,0.3129752317109028,0.2909173978095065
4,0.29589434565994954,0.29920479618720575,0.3177231430780939,0.28517284513029384,0.3046684471212163,0.29034204188323665,0.30778473970022846,0.2965306291209889,0.30884983699108626,0.30271127232700423,0.30766175252674655,0.3006287368917358,0.29009636601733774,0.30144854595028614,0.2870925021566847,0.29190037409624564,0.2916706795606656,0.28809693323146984,0.3021472198472921,0.2908591938922931,0.29141964100997597,0.29900016232434506,0.3006286700045674,0.30464873238709883,0.3211617949826061,0.2983563954930005,0.30539251948599283,0.29106319296355726,0.30086788885487625,0.30447555900380624,0.30675922798489913,0.3050093233568939,0.2999917265336216,0.2962395273525115,0.3003728599990892,0.3117798485598996,0.29219166506531036,0.31030218497743683,0.3010389261142762,0.29582903931505583,0.2992769277346122,0.29730415535043864,0.31789956131968833,0.29123495960850704,0.30842382998447687,0.33646393913927686,0.3064340164254574,0.29119220780958804,0.2972538444755651,0.2931843688419734,0.2915115137627316,0.3293425357101024,0.2997829162747183,0.29220824094013126,0.30659029421371303,0.3078796777066234,0.29454401980523304,0.30682025957103265,0.2908935873678163,0.29628398351316426,0.29238990502318984,0.2935963253990195,0.29691332317719527,0.30510598128690536,0.3025959644260202,0.306973007505335,0.3140295229373577,0.29049357048613944,0.3077118596990562,0.2975978490958535,0.310252926686876,0.2899921983269974,0.3109081284950917,0.30446238891124733,0.2886551671376527,0.29757609346100716,0.29925941498577613,0.294036149962101,0.2984366289917256,0.2853991865581526,0.29460840161475654,0.298945660663236,0.31510872256923184,0.30349187816381623,0.30376812989637036,0.29020398173169615,0.3122255942369358,0.3049450614692816,0.29153711935344917,0.29280145032170096,0.2860922200761143,0.2942214884067873,0.30654802249789936,0.3030119797378378,0.308375031910178,0.287331091012851,0.3062364577397798,0.29659969956654064,0.30124950204548506,0.3126892303236833,0.2953882923089045,0.28846678550446225,0.32663604984554495,0.2850430356285964,0.2966767492048751,0.28575289842850504,0.29263840912010275,0.28283271317103525,0.2976632984598311,0.30036968453103363,0.3206390068650417,0.2966179373092687,0.30296874035841703,0.2940181706507508,0.29518199238768644,0.29910814458818025,0.28186585718527646,0.2980160235203468,0.32495326225104926,0.2879870438325727,0.29380748178931343,0.28907975158671184,0.3052008032253924,0.2952089442086976,0.29333679307422406,0.3125977962177089,0.2859041962675824,0.29049114991256497,0.3073913975691124,0.3060461904440019,0.29633212178721335,0.30046149809750883,0.2958147692860208,0.2858220191092898,0.2952098028579998,0.30955623396040405,0.2932251289238936,0.2980673363264596,0.3171119567598375,0.2943939378384704,0.2942086715694573,0.3047886968785916,0.30037231664923053,0.294986194997338,0.3215072482174372,0.28949132515372245,0.29448408961714884,0.3037486294690121,0.30007612027275554,0.3096469191280379,0.2992376394785804,0.3016994744410383,0.2886902976100224,0.29503086468247836,0.2899037960845622,0.2948855383811645,0.2957543065648954,0.2894560895827114,0.28621767557910754,0.3073079278878156,0.3107835769060047,0.2930865302797921,0.3137285535931801,0.29623045593402547,0.3047720080309299,0.2894309376925886,0.2835542289208633,0.2988561099454053,0.3155732818281347,0.2969092492615407,0.3160450659998576,0.29357927535440803,0.29109836337946526,0.2896719298567495,0.3000286799497915,0.3004483862023479,0.29828672771418535,0.2953103509658167,0.29742552242014747,0.29295318055073977,0.30096262958919084,0.3191253550438598,0.29451889423673994,0.2979796812254252,0.2913248852926208,0.3536007326428067,0.312120878429423,0.2963349913403885,0.31260014158461225,0.300205426727016,0.29465489299745284,0.3071750559411019,0.29662557624812047,0.29387943461391625,0.29147393580400627,0.2979480788795067,0.29829498073359806,0.2918033874936644,0.2928004627953638,0.2926903613103462,0.31353946522558684,0.2974831765110132,0.30553703555287803,0.30073082390620814,0.3002052509133392,0.2924507254785757,0.3086204244326412,0.29447618457498737,0.3006369980391877,0.30545583983685015,0.2978203479583449,0.29584688391834796,0.30683512971631743,0.2887904651880325,0.3076714423840262,0.3016318984160449,0.2994098885584465,0.30088087029233107,0.29756931326843744,0.2869455995801887,0.3031057142247303,0.2879725667777239,0.2877758177859243,0.28422999039101116,0.28892728840357695,0.2981508735978915,0.30335185138047654,0.3210734127280517,0.3026228945578289,0.28114057074808585,0.29353867047298743,0.29218812926095483,0.30952373025803653,0.2932447461930072,0.2958433424945354,0.2911664367504439,0.2932917619879908,0.2931297825930551,0.30622107506475066,0.29483453240651114,0.3340529044639615,0.2997151634173167,0.29467221800835514,0.36082070303104286,0.29435180410049355,0.30839941578026603,0.292817271703942,0.3289471624648763,0.2914566656168263,0.29339809536302475,0.29202219576653515,0.3314211603871549,0.283384290503075,0.30985546869047914,0.2961458368363552,0.29664095704919935,0.33172667089418956,0.28984180632114914,0.3191254968384959,0.3063480500131992,0.3056792273886528,0.29918959363410735,0.3168459510170257,0.2926668903360522,0.29294085788083774,0.3243564265148883,0.29662610025550296,0.29711494185852066,0.30513545283941557,0.3211869001619437,0.30379954558699296,0.30440878251327463,0.2913411856306361,0.2950388673578366,0.28946234231117957,0.3133405501722457,0.3278593481560133,0.2894764735697531,0.29446881259641566,0.28479768597621247,0.3048149077230258,0.2918409204736293,0.2989792684838154,0.3147830019534003,0.2961555359237227,0.2913419420995281,0.29485557150211983,0.31232145334175393,0.310963792181981,0.31018228335010056,0.2970687779010605,0.2873127041950229,0.3066087704922681,0.29992046898579205,0.30556876873648714,0.31274193088117463,0.28513027739538,0.29297287984981984,0.32741506683671373,0.29320423776586624,0.2902703400240584,0.2853965273816167,0.28559895078074654,0.2860209713773535,0.30098467639373216,0.29352814841980035,0.3130898885572328,0.29202139505631675,0.3255030145007612,0.30190304635962384,0.32572672053754814,0.29569802191196987,0.29408710463925425,0.29651337466329153,0.32445677062891726,0.2865373479565709,0.2932810478642883,0.2992857865911378,0.286231443591468,0.2993919247562607,0.3044258680430667,0.29598330997890315,0.3103286763601107,0.2940922813799524,0.2960954986780855,0.29873986599023356,0.3168881033508514,0.3025441707145764,0.30753725676674537,0.3169952768504166,0.2887485918128942,0.3112522484396196,0.2869423033125945,0.2882756763362375,0.310655838651551,0.29036234887666024,0.3175006736610888,0.2941619570389755,0.28923815900596667,0.29950184382485523,0.31422715372748217,0.28948931920106213,0.2972348718753731,0.3099526798369127,0.2966424937890695,0.28529518959666456,0.30604002024064575,0.316013929397252,0.2989332474350047,0.3056896501197858,0.31622194180681906,0.2890097682870999,0.2980307566447447,0.29325607112086904,0.297345457259538,0.29378889829246657,0.2984403275655179,0.3231542103328735,0.2989318456330355,0.294638267429374,0.29643757595048503,0.2923597058475513,0.2963783526551161,0.29467478168072037,0.3277112761383689,0.29591302021615273,0.30152576536181697,0.2846169585389019,0.295471918169674,0.29660032164994066,0.28988696314839646,0.30421101312975113,0.292722759830536,0.2943597128853802,0.3081428747360718,0.3025628866235342,0.29739821473712924,0.3253661770519113,0.30337006328209726,0.30165454268309416,0.3161398686671701,0.3075490300497695,0.29511025405563657,0.29001223920405916,0.3057869398972115,0.2983466699795091,0.2954828371289572,0.30418227877195764,0.340924167405514,0.2858550903654853,0.30288584688043596,0.31720059499213776,0.2912414908930153,0.3290677283897089,0.30251182089083256,0.2945233621405095,0.30255834661503833,0.3215974461704134,0.2866958384786975,0.29112861565673354,0.3184180330319157,0.2974382380432411,0.28665387372701195,0.3241694112631014,0.2966807677675301,0.2910876586769859,0.29357109742790477,0.28923936878279444,0.29248495473826075,0.29312434419893074,0.33085390124103886,0.2918290770598454,0.31579785927835086,0.3188431859454971,0.30018636741648175,0.3053853376185518,0.2900314273261917,0.30623384784675084,0.2934469232952313,0.30529904159120214,0.2993685220670884,0.3081171973262405,0.2980488957113547,0.3144728882519007,0.3096421914007278,0.29929655740529615,0.29414786397901155,0.29489119491859705,0.3000347383500776,0.29800088988263346,0.296764054185224,0.31338260647503746,0.3176096095383027,0.28703073988516975,0.29273550110242486,0.3100075963538134,0.29201655419244504,0.3023531007267282,0.347499457705797,0.3000388675894752,0.2942569392648206,0.3093668245060194,0.32202445739567376,0.2939866256332043,0.29196188078043595,0.3031725335690848,0.2918681861541699,0.29447505787464406,0.334129466180053,0.31318975097421264,0.3051062169893869,0.29163005580165935,0.30130068976857605,0.3020755169529781,0.2967959972168747,0.29418191794151977,0.29131702283587335,0.2978267037469188,0.29291870420583027,0.29904573519399047,0.3039508331865035,0.2936134110351468,0.3104580022238604,0.30879588801825003,0.2974985996613671,0.31613155744027777,0.3144079244111353,0.28684463870054006,0.2968715681767461,0.2956455259591265,0.2977231971852376,0.29220306146182395,0.28963139679340016,0.3040471751105026,0.2969229045973468,0.29734137753856077,0.2874155836028364,0.3092899224634075,0.29227294573237145,0.287592002141957,0.31133204150138305,0.3118112803615269,0.29301096935046334,0.28663976916094525,0.3006400563168716,0.2895002379076662,0.29764459908688284,0.29570035693531965,0.29985317342511486,0.2990418422456031,0.30989422610281175,0.3022012815808128,0.29495089945881253,0.288890139672188,0.3110391068595593,0.3192240183936827,0.2932485842130511,0.2945562930556722,0.30858259952467426,0.2997008081270604
5,0.30113919606305767,0.2973448547326295,0.29672448965338444,0.2949397196760444,0.2917352489225778,0.2954141405665564,0.2873448181042318,0.30047910068754347,0.28672238001218026,0.2976356621919825,0.3014328860447788,0.30669816030932207,0.310274609136089,0.29674296138884804,0.3069158186807507,0.28716545724545406,0.29167168869950794,0.2954547574867108,0.303912095881447,0.3049970023553684,0.2974352202222446,0.29677758473376925,0.28555553343981127,0.3000667804450833,0.3172347139281082,0.3204756131998955,0.2940949863257253,0.3023497912414136,0.29917616170345085,0.30128495824397855,0.31248235845038796,0.2968252871916948,0.2890339586015717,0.2957866671455912,0.28878747346041134,0.3116051360250779,0.3004279463830333,0.2966232283620426,0.30375357927742164,0.2963684392970691,0.29058266658734083,0.2939788966169981,0.30542210896498534,0.3189701922932907,0.28816998965392104,0.3209320341826817,0.29620842864198477,0.31174912125119847,0.3003504557098034,0.2904169402933483,0.3014446109880051,0.3060352354135297,0.30612043287406887,0.2988089587655346,0.30788143985814964,0.30189430339752105,0.3104086991033553,0.29535184364306444,0.29454390906483763,0.3034804100721601,0.3061801400600007,0.29205927950243316,0.2855427280583083,0.3003750215718753,0.296274266843566,0.313291959183928,0.3011429481191238,0.28874951290381773,0.30949103772220815,0.3036603599264724,0.30401933216140237,0.29528130523165724,0.3049301123761612,0.3002058628602807,0.2881478933299515,0.2999886782954019,0.3062241100289035,0.28828754102170207,0.29823221682241774,0.3098384001104071,0.32067572850057513,0.2981559945408094,0.2990186006391162,0.29391267416142025,0.2892874237458579,0.28575079499430645,0.3090229074092339,0.29539669894407894,0.2903586767984079,0.2978328958648492,0.29772715127727734,0.28675787726458885,0.2990057060370392,0.2898897365880679,0.292013346733866,0.2909169714960866,0.2899669955223384,0.28623874043201847,0.3239033880164791,0.3081199442637676,0.2978577468361311,0.28999276555215214,0.3156429901927539,0.289918566529393,0.2932473876870656,0.2920634755856102,0.30320671147048095,0.2863352598300599,0.2938426268085951,0.3227807064305844,0.30073366600883183,0.35061818237569214,0.2973749972745942,0.31103642879299753,0.3179148764165235,0.3053422902981014,0.2964888671250057,0.30927696239404867,0.31565515193684657,0.2900918476328616,0.2895946849820601,0.299196814086499,0.29593096036476696,0.32466275380540616,0.29386186526722635,0.3180635944975492,0.288872916721304,0.28727711286887236,0.29001921857263147,0.3004455038070864,0.28833035566843435,0.3053332142805383,0.29314037397289733,0.2865617311448023,0.28826556610063403,0.32341039310002445,0.3036935649312028,0.2916397237592886,0.3408778602704527,0.2962937683924357,0.3071445729894027,0.2937222392175093,0.30815152672522034,0.2903477711331622,0.30063055144146306,0.3078329281115547,0.29886700048232817,0.29844868863808754,0.291546012320315,0.29517511152899656,0.31802076816650154,0.2904355828992522,0.30110288864547935,0.3037940935902053,0.2935091274430986,0.2941901451738651,0.2833619354941598,0.298559789772037,0.29488905157824796,0.2956728475022353,0.31641135037202595,0.29073512264531853,0.3004739383346065,0.29263618208851155,0.30931353488117747,0.2853087163889522,0.2965546206241224,0.3005766956951814,0.3165584471746975,0.30142870267335886,0.30409242137948966,0.29878192504832557,0.29491565433729516,0.2995933459113875,0.3043296203097293,0.30372109818386883,0.3144198253886964,0.30652314200493697,0.29759220974661654,0.2928402247642617,0.299775342228587,0.3009284830535976,0.2984737487572525,0.2945976006689538,0.30322855043980923,0.29584332039986116,0.31056756534987395,0.2964874954241844,0.30704938908854984,0.33894638629630613,0.30809549503492567,0.32274136850074575,0.30150445658417924,0.3022501584646016,0.2936721834932602,0.305771834249313,0.31136094151261906,0.3150937582680772,0.2884880241077049,0.29030251593073453,0.29840241963974623,0.30264351645713145,0.296787617654396,0.30376667413102265,0.2933673179381767,0.30999226071185726,0.3078835729781886,0.2940796543826641,0.30287629044725384,0.3216221989516806,0.3082387315431053,0.28399595137865086,0.29273629671781437,0.30932353757411546,0.2948227922384344,0.300065018630647,0.28847250375148914,0.30247273615700515,0.2877224712070967,0.3008449298516071,0.314435779878798,0.3061683267308206,0.29970440540585347,0.29684821991957366,0.30436088551649054,0.2980091262586174,0.28781832930777407,0.3094155157189775,0.3057825922837001,0.28710301917647796,0.2986250514116453,0.2967799684982656,0.2958922680169817,0.29187705095088445,0.3004390806787145,0.3013130710983613,0.32700818601712867,0.30332809819821493,0.30154985418768354,0.2955610183959557,0.30236426128248545,0.32193176137947876,0.2939555687558949,0.3410585984547289,0.2962932722385751,0.29869688401688765,0.29516040312631275,0.2921703022077249,0.30467252533824757,0.2837798093293823,0.2872327609925588,0.3214454024074832,0.2840610770385379,0.3302160566525029,0.3048252505958076,0.29613583103122004,0.2900484441953841,0.29768348417455015,0.30489645218025013,0.29187805234827574,0.29643034781608496,0.30584878033518403,0.30529803964117613,0.30732087410053976,0.34677678722010635,0.2958277192964412,0.2938747911157231,0.29831106017972686,0.31273966074310927,0.2964392143858824,0.30153297668929413,0.2988573186051082,0.29957287438881286,0.29584770307132996,0.30327571443404217,0.2999975847940851,0.31247366605268334,0.30383674675397127,0.29964911380308984,0.28640126678972233,0.2999451800517391,0.29999357600198423,0.28418271838031983,0.3013267769618541,0.3024807710811292,0.2974303526633444,0.29910924578345677,0.2946190673555155,0.3102258395602644,0.30441088346410167,0.297116205528437,0.28988930467500507,0.29182201833945526,0.31252787806341914,0.30099112313523524,0.3069743490421316,0.3071142014665448,0.31099581040641333,0.33421808645115747,0.3016193613020573,0.2894964572935295,0.297209575106949,0.3137410237775423,0.29227510678393903,0.29169651662925866,0.29887207423462325,0.2976831258905029,0.29076830858506286,0.31587776810957324,0.29609721343995754,0.3115583299248693,0.29589350907837586,0.2853282680324497,0.3225628147521552,0.30197146336853503,0.3014297693530118,0.30037865454572865,0.31159283321473175,0.2969678439562437,0.28729494708072806,0.2918402668726059,0.289958178017774,0.30214186014257716,0.2998528779218366,0.29453423782356314,0.3040789327479586,0.3187780196591136,0.29013051418179114,0.2867724571137537,0.29657444629538027,0.3016776093746838,0.31383165212068437,0.3083154759972754,0.2933632759497731,0.3301053530368734,0.3025319395036765,0.3240263998060994,0.2957992400343651,0.2883649393002981,0.3232080300681597,0.2956254373848723,0.2925602240049173,0.3072498245967629,0.28455168451050494,0.29801882368329913,0.29589090571936355,0.29377376833849955,0.3055235374794247,0.2990135964822799,0.29810487183110157,0.3152954424766935,0.30342063740088043,0.29153733567079587,0.29349060494834645,0.30050570626319395,0.29120105063019086,0.2999336808066787,0.32234443912159,0.3093301218109886,0.3015194014051008,0.30304069516863347,0.30516685491171697,0.29321563701272657,0.301454672063548,0.3338418069874408,0.30071000048259755,0.3062430419145042,0.2940407590478352,0.3003738894225189,0.29627014937138557,0.3038678962541651,0.3037186335909574,0.2966823719530594,0.29163653601789175,0.3057304543203966,0.2916884783865167,0.29690390731158106,0.30896460101250733,0.30999418875612983,0.28683386422559914,0.310212290201591,0.3321777605092189,0.29043026747168244,0.29968469135404147,0.3177788714405917,0.3225688052348598,0.2968926754221477,0.3038171877685737,0.3170894276935004,0.2940645047484965,0.3188730194033274,0.31583560255150045,0.3023476178758715,0.31392069123828115,0.29109792550746916,0.2840256215089353,0.3245214138621203,0.3370125076089496,0.3003707942273836,0.3222641932582046,0.31587966299298986,0.30946019324215257,0.29523910455414376,0.32703230508526504,0.2865363602470513,0.308728615615218,0.3059717642018801,0.2952635766336132,0.29510696583744156,0.3042706866753916,0.3193936975537047,0.2941176007366462,0.3108804008376051,0.29224877115524606,0.30250333841179533,0.2967919881185917,0.2954412890202458,0.3301720893228402,0.2928176347644046,0.2923749822231335,0.3025054156219914,0.31717391964769825,0.29752888169268676,0.32548432900417906,0.29333249943872314,0.2968475357164453,0.31380604846533033,0.2946701545171038,0.2945863498138169,0.297070798728288,0.30436703091486533,0.3183612952248038,0.29358557852821443,0.2873150759562089,0.30005033511273693,0.3090392688333855,0.29435447481712596,0.3084612490059333,0.3399859471303007,0.30881875359343086,0.29799287616945086,0.3014851331801467,0.30382500972700044,0.30085659064742376,0.308005764106365,0.30305845343467824,0.2903646094693454,0.29697557028769056,0.30272637587822987,0.3322421908591668,0.2914463901024923,0.3061523358938438,0.292952058423244,0.3141943635724526,0.2932121297875734,0.29781641471926046,0.3042802294107995,0.29457388214827473,0.28646388092608877,0.3290036673996627,0.2951246914101481,0.31695584850876607,0.32414516178966213,0.2993102416226619,0.3070576282673206,0.30597961838290444,0.3074471939041964,0.2966615190298367,0.30312179337730843,0.29986360819357893,0.29183952124817214,0.2951109230028023,0.2990845614641781,0.30457498016290935,0.3027594546611708,0.29774340338313054,0.2956712051052961,0.2947003957813405,0.30577533838554044,0.29753019377817935,0.30220231635700634,0.30744289691420984,0.2827612068013862,0.2951254260572232,0.29106936928863336,0.3103594518355268,0.30963290475839633,0.29238570521558244,0.30863272260086727,0.3143225912027167,0.2887519967267068,0.3008844619385493,0.2916567224275942,0.2924156295992102,0.3048714695717828,0.2905274175408946,0.3000260308517014,0.29881663310545536,0.29587543720730386,0.29254945394412496
6,0.290477016762121,0.28684694787602716,0.29315324730593206,0.28946910319166264,0.32835464306913137,0.30013174717000446,0.3034445807203253,0.29024503444810057,0.28947951679615624,0.30069653194399193,0.30418165576379824,0.29626079675656786,0.3040799767186505,0.308035466668404,0.3055056610290955,0.29926012731244106,0.29236319358678414,0.28800062573575247,0.33103994235601186,0.29806276637525697,0.31284410803208207,0.2980310957988402,0.3041336389448093,0.3186447155844927,0.30135189082003616,0.3205335126303476,0.2873215430497041,0.31615882054537725,0.33218334446301667,0.2960771203654955,0.29467529967561024,0.29406727439086333,0.28647882027418636,0.29304361333577206,0.2938793076914049,0.29824681232918887,0.30162032430051466,0.30473707244834614,0.30034817527269075,0.29387264107707745,0.2939354364624771,0.292148839976657,0.32987168962303276,0.3003687710496715,0.29984299754637206,0.3156777716299068,0.29784719864321174,0.2905202600288138,0.3021476748025244,0.3018090306529501,0.28143703313221957,0.3343947637799024,0.30526158811394366,0.30987986721205557,0.31220253466362435,0.29815303762158957,0.3170117646153966,0.32941497372841677,0.29129175297878174,0.2913413346011114,0.2990087551576483,0.31458021647633083,0.2912707720144222,0.30781932109750965,0.296261742912063,0.3426678700479252,0.29079843511197595,0.2908047010765064,0.30428982673270283,0.29524338292160673,0.31329349299496373,0.3076348909557806,0.2888943981814275,0.30281221400014624,0.2997039925769423,0.29645832521741744,0.2998715156144614,0.29555649104772275,0.2867476659137569,0.31200833524105925,0.28982250282458216,0.28950104736532195,0.3034853599250936,0.3033116288662647,0.2973594649779056,0.3002912122752009,0.3058147117089737,0.29605350926466406,0.2951860888902585,0.29399376064647653,0.2848446403655943,0.295158194231376,0.29507277480234884,0.2887651153161871,0.30493727054181197,0.288673507806802,0.2939491325500392,0.2997356984868601,0.29481030114307194,0.3032743178769068,0.31026279749853164,0.29398833427290944,0.3210365128523621,0.2891348478348083,0.30967964315014496,0.28639825340520425,0.3274725302925918,0.294993688447562,0.32186215374895505,0.2972770866918622,0.2979794488055914,0.3011097733650526,0.30074064397900313,0.308644825993002,0.293311890358862,0.29162447628243005,0.3156770077127105,0.3175714555731507,0.31022223815462774,0.28947130790682796,0.30320107691638853,0.29596045570385543,0.30194183635894,0.29958914386782676,0.30014965062449483,0.34418162797360985,0.29949302983693116,0.2938522654329455,0.2974784715528163,0.2978025550470338,0.30826287721249435,0.3101482145017169,0.2920697132495138,0.2888466164342204,0.2974221553303832,0.30520878177097044,0.29442618302202156,0.3019811746432011,0.3075749140647769,0.3032645849882391,0.30361225115980284,0.3111553691224149,0.3004880325992949,0.2977681123703432,0.3224390971781196,0.29429216106572104,0.30952450358992933,0.2832244004823723,0.287964048503169,0.30889520577468343,0.30479001967532093,0.29046269002686426,0.29232856455125394,0.2953541004400522,0.2955653358256912,0.28407728775889807,0.29010501421700535,0.3138677456312846,0.32261561671840566,0.2948184100427916,0.31404448434396215,0.2874236180809846,0.3177712659145612,0.3070140208496239,0.2923597520579405,0.29143342379007803,0.2964078266079604,0.30146970897569,0.31638912351787274,0.30855477857090463,0.3091549132461083,0.2955541735460493,0.29324123441898947,0.3173420928086987,0.30642085136710123,0.31745565563611666,0.29961491437299637,0.29860095455598307,0.3131927023797748,0.29460047175199955,0.2928887949432727,0.29708488960163204,0.2844573071097364,0.2942973167508654,0.29013743853742835,0.328674381747862,0.30481339719948397,0.30228350068832116,0.3129142040965435,0.32444209865293727,0.30083746336588135,0.3069013256408333,0.29610256820448483,0.30703429265823867,0.3027242519399186,0.30551855868291555,0.3097374582448146,0.30245781579799436,0.28731057544880156,0.291204781605292,0.30307574930789066,0.3037618760548027,0.3126867749034622,0.3070326364554051,0.3260544186224025,0.30131659417424206,0.318363732871,0.29831854506977973,0.288114760953761,0.3203849580864422,0.2851564475151345,0.2910380599077845,0.3061174608650483,0.29566868345087804,0.3054129350803495,0.29932647640882704,0.2839812987480782,0.2981828378620748,0.29006060945722967,0.28939001378544493,0.29089489977614125,0.28919631803892915,0.30460243111031327,0.2987071186360072,0.28787514664269065,0.2965187680168439,0.29824675260860944,0.2999191849917212,0.28918972000281384,0.28462481127159506,0.3023395317749072,0.29065058324707044,0.31018724960347976,0.28888587078335154,0.2919674659856705,0.29343721213697505,0.2974500948514591,0.28999408527742454,0.29766578486724216,0.3045151955368428,0.3166082340474737,0.31638270968594623,0.2983333764520434,0.30263771455806093,0.29968247473634635,0.29141093323406764,0.29651876350532735,0.29575227118504627,0.3011837820438045,0.2905877510529436,0.3235473757705266,0.30456584945071197,0.2902408476330122,0.32491352884572117,0.306140958202889,0.2937188920172362,0.3106357355097838,0.30937759574026813,0.30982698853225077,0.2995046173554258,0.32412673083593174,0.3056930553574157,0.30177360291903055,0.30078811217907764,0.3169873871877611,0.3051604850323418,0.29094806358258957,0.30147552751957307,0.29808256563555996,0.3008267539741386,0.2854469467556531,0.3174443539539014,0.32215285319457393,0.30678455063122334,0.3090416521959438,0.30432761290494803,0.31973224087169605,0.2941293843527423,0.30558208944198206,0.283272719839046,0.29220219116059887,0.29322864187664394,0.29109061546180626,0.30123409334620593,0.30781670457180654,0.31331459531479383,0.28443173923242515,0.2890075618091895,0.3256569796011326,0.29320101482454897,0.2981912704337108,0.2905994934638114,0.2993405195981631,0.3164454580670292,0.28392149580104825,0.33303864927556975,0.2975469333214053,0.3274941929136748,0.31260872034002335,0.3027082453672517,0.29700905897969665,0.292837868921402,0.29396304809551854,0.2939883591596043,0.28808064638635644,0.30211375913647487,0.2843747799282337,0.3105364110515129,0.32994083303202043,0.28828610119909814,0.28695312171473336,0.3128855821915729,0.2946075659117582,0.2980885418351536,0.30428576442314215,0.29352534287167464,0.2973702228790278,0.3036883549570823,0.31435317806729113,0.28609405381697905,0.317284688790633,0.29292663683753306,0.3070191470375184,0.29823621908770337,0.29780356700503896,0.30779684741875013,0.29855565338594064,0.2983704447255032,0.3012344256235958,0.2952836281714236,0.3219356288370708,0.3039053137298405,0.30369569199751206,0.30297720233158215,0.3088727013967143,0.29644849352335834,0.3066070405162226,0.2900265111102693,0.2874147117113258,0.3031335344309338,0.2947355776815507,0.30229024939097415,0.29665710609877594,0.29226533446390823,0.3165175182416998,0.3006057092166451,0.29819151373614966,0.32886777261308703,0.3084434139964394,0.30269767228182276,0.29716686711020757,0.29859763151195917,0.29565094361653654,0.30257947161847965,0.30331448879145756,0.29352566733535224,0.2889484790925407,0.33470671443920574,0.3101568531587814,0.30909048389869903,0.30914893213463607,0.2950504845509919,0.29051540764802086,0.3170780044906869,0.318278046550394,0.3001918803230804,0.2998759835750129,0.2931238729572853,0.30380751687204166,0.31335769655047385,0.3071783824482779,0.30585195302112556,0.29814100838833546,0.2954131408928767,0.33034294918307416,0.29311165175417664,0.2891877274387691,0.3124497410760636,0.2878553815573534,0.2995987925497182,0.2996672682141941,0.3138447164799686,0.29637822306507317,0.30572451036763726,0.30549441987900183,0.3174898488114789,0.3036676837472697,0.2840988858847985,0.3380049524538168,0.29604407500732305,0.3083655274723408,0.314306365209329,0.3013161594978374,0.3125893854397852,0.2892027128564182,0.29847999647822177,0.3302394015471303,0.2963367329738863,0.28682487661458256,0.3111480822446916,0.3066358472906786,0.3054123842783071,0.2986532593751968,0.299415757960458,0.3046046348658559,0.3008640542900921,0.29705647405899993,0.3054402503461548,0.29657685412588675,0.2920238282166845,0.31330470985001496,0.29542176168939105,0.3085424374317204,0.29634808947337343,0.31113188968204547,0.2892638345834271,0.29562313355131936,0.3064309123341123,0.28814805054923653,0.30707440382827406,0.3097426898946988,0.2987026746626588,0.31259792874993514,0.29800105437671737,0.3210404227308916,0.3063220698733478,0.2905118486684266,0.2979664365365553,0.29327141614672814,0.29091044281327816,0.2944879961840059,0.2996486574472296,0.3168733744365851,0.29329972174633423,0.2906910845177729,0.2917515086339508,0.2842164925148605,0.29671693449630626,0.3062577507494064,0.30424614684755663,0.2909189515143054,0.301279661684786,0.3029137361851446,0.3059823545432526,0.29388018428245577,0.29908387351162047,0.2936203166552803,0.2999762498924449,0.3019499794258339,0.3051612041378965,0.2977629486142417,0.2953972995362297,0.2964073267178572,0.2984325647860274,0.29842699012159346,0.3083912918936737,0.2959764236854793,0.28997633517995663,0.3119744636432585,0.30914723719051573,0.3063476833632716,0.3102892600556578,0.3163881160446034,0.3007712347892288,0.3114175460052221,0.2964970014683633,0.29884392804228194,0.3048829861746537,0.2899691023594434,0.3004376620720105,0.285019366611688,0.2939503966790121,0.2986182626929538,0.29019751280768247,0.29885093196349455,0.3005809100908038,0.2974408886594502,0.30219311878398863,0.3007845831098125,0.2902542922665464,0.31138216618709336,0.2987260794901362,0.2893585167075651,0.29128301198031087,0.2881812905104973,0.2977018522941696,0.2905616049649265,0.29346853490579505,0.2945405752739501,0.2921143917835838,0.3132558455733335,0.2980806387705236,0.2974480231408581,0.30451058976178436,0.29742991023310095,0.3102020080707582,0.3033644269472177,0.2941568677276427,0.3058951018004913,0.2909928569799078
7,0.2982222913203887,0.28312030725476817,0.2885330506948577,0.30080520229299573,0.31313876486515,0.30425362877852036,0.3031497236545372,0.29552555698608873,0.29571044796593465,0.31244783033228823,0.30230063033919946,0.2946732585819744,0.2980577277546771,0.29016412978575484,0.30593987191181415,0.28781213551471,0.3031137726545176,0.2887859565547544,0.3075167697673543,0.30319974442565384,0.2887919050646963,0.299999922693511,0.2951986770368259,0.3025880753423554,0.31392754909498344,0.31107415008940825,0.2900917598255136,0.3153391840110745,0.3053752994156174,0.29164703280437565,0.292565065005238,0.29386419213163195,0.2874606676489308,0.30547596601731375,0.29056224005476516,0.3062815931086641,0.2949878461383179,0.30527922402680086,0.29339981812520105,0.288037592156967,0.3131139384027118,0.29416573445206523,0.31359355366824077,0.30011209115561466,0.2953596282445312,0.3105080173919435,0.3022007485406453,0.29558378719404993,0.29641165797480185,0.2995602173242576,0.2911337155277296,0.3091734212999506,0.3040550400970325,0.2946133781688597,0.3056077278185594,0.30592626013678104,0.31112890973652807,0.31142442570781287,0.3084522763073944,0.3213494993826256,0.2929031140009129,0.2993353971079327,0.2914496042858597,0.29650641013797985,0.29882486981999995,0.3085516624722235,0.30024937190476947,0.29171806806558614,0.2996819485178082,0.2946593479861482,0.32207769722287755,0.29216493779326724,0.3128960329425985,0.30191467898676694,0.2928226226887241,0.2966333051068609,0.30239909376175167,0.2878950114014304,0.28996241592243177,0.30899280058598155,0.2933154826259551,0.3059350568573028,0.3214279812750198,0.287360142948277,0.2940109663045756,0.29659254640456856,0.3101940498595655,0.31121265063020476,0.29456820057636074,0.30161875843313374,0.28431352993583725,0.2980404608614482,0.31374983820488594,0.28398609471789527,0.2992046410020544,0.2860927709450556,0.2974944249168753,0.29378842518188175,0.3052315035091969,0.30755221984484377,0.29907454446552745,0.295848390375995,0.30893309783484735,0.287170266880191,0.297669218522826,0.29521620199445253,0.2899235242254093,0.3039200939650967,0.30554283514487124,0.29601096837345026,0.3069098916040586,0.3137702196136176,0.3058438147578099,0.2976765353358685,0.2903343494496221,0.3023637482094453,0.3223678067670882,0.3135477257396437,0.29851430644462346,0.30453518215887354,0.28638090643842623,0.3044402781716112,0.29743670847299997,0.29681685727636714,0.2909239216326413,0.33052601358432004,0.2838528953274677,0.2959041634103166,0.28887741949567386,0.30636966221921075,0.29551367083188423,0.30289495221406887,0.2935771858962521,0.28936066365939206,0.2871333739189604,0.3100020861520416,0.3163606425572413,0.31820388282713563,0.3222266141314484,0.28857833652990583,0.30279894889951203,0.29759791455208134,0.3141085487697107,0.295095118755629,0.30914089773959097,0.3053604486979567,0.29738769350536953,0.29938791874232834,0.2893078242597391,0.29388328363744115,0.31058760603067814,0.29369658406720045,0.2987169375127282,0.2960988126755393,0.28572553535207934,0.297092570272918,0.2848295346527608,0.2953126096883637,0.29199048505216896,0.2967726959993927,0.31882579996183175,0.299348791443156,0.2947436420852544,0.2999022953855445,0.31178072814115965,0.2873740142379427,0.2942735108007843,0.2844782296438679,0.3164510820195226,0.30274645776774023,0.3244978021790335,0.2893542249773232,0.3085559665269233,0.30288470739595647,0.29609158557495924,0.3013947913413132,0.3083700460138779,0.30247000905230637,0.299757752696949,0.29411292910902764,0.2989063486334388,0.3033615143289733,0.29099950696833576,0.307795441278827,0.29463035154343364,0.3143694310869252,0.2887167080896819,0.2992410206352049,0.3171582670918806,0.30637318325734564,0.3026175780220141,0.3384317292786595,0.2997910143163936,0.30229217948575027,0.29642459134849874,0.31497153933668814,0.29489587753091995,0.29684350215848415,0.2929488932881397,0.28940232731161264,0.30490989190767753,0.3022752397351741,0.2888614398966609,0.297351396149803,0.29492501689402706,0.32165677469630605,0.3041812976683893,0.2935616798180175,0.29772260023015307,0.3151981017850848,0.2903846567954541,0.3173839336050722,0.2946642290855574,0.29131689660556304,0.2944887627085616,0.2939897899972227,0.2965808510296418,0.2975237796560487,0.28633635973182764,0.29731305048053347,0.3022959306105998,0.303941065014171,0.29126556974503964,0.3031307622050875,0.28767295737819115,0.2937855812354772,0.3022390533522019,0.3068021357358075,0.28615860209116895,0.2987449067406913,0.2898251494100213,0.28994649045405063,0.300273666924704,0.29227790414522137,0.3169047147403277,0.2993688502869691,0.29459506032067095,0.2937726941281319,0.28751177816470896,0.2990257857105656,0.30044248072993884,0.30851450978009176,0.2859326908764022,0.3149029422894407,0.28971803395612555,0.2922394597447019,0.2924259850486037,0.3080680677248785,0.2980925407770089,0.29164113591272783,0.29727860650336224,0.2953449757403509,0.2870356565273018,0.31596971125978246,0.3002689807386504,0.29411802344182325,0.2930033514855234,0.2952509049539939,0.28317557175696606,0.2982407935685235,0.3203194570384724,0.3054983520472839,0.28904490280450845,0.2952327408734937,0.2999463004038121,0.310592421186792,0.2902026922769988,0.3043899662933014,0.29264482097264966,0.3070383436369172,0.28704441435906514,0.3035032176521736,0.3099234126583628,0.2991330370348403,0.3049188533418613,0.31395900090990303,0.30790496974859083,0.29593645534573654,0.29862028229352927,0.287277708311081,0.29334813292490236,0.30663115442301525,0.2949336541303972,0.29952206494042066,0.31784022217033614,0.318710220638306,0.2884233419118704,0.3099242280617874,0.29932939102275863,0.3051869132102727,0.29447619531915015,0.29009764260081233,0.3041350268522274,0.3060284608310747,0.287522011795225,0.34142400770435744,0.3022475589781954,0.30847939528485097,0.307627143377618,0.29295902083547476,0.29030919118419835,0.287257194227062,0.3031419648535461,0.28775764668627324,0.2994011711673146,0.29833050904452024,0.29533171974385325,0.29518785332752606,0.3102936039993125,0.3176114859851559,0.2902171869771719,0.29803769390298224,0.28860218325003123,0.3009448212855433,0.3197181977587164,0.2926518180969787,0.2874378167724825,0.30048475868834906,0.3164243259353202,0.30998229997683435,0.30987947257694026,0.2963843941457793,0.31151280726293484,0.308940578895585,0.3112746251160682,0.28689192286756904,0.29306917897120066,0.30006292393135764,0.29187332156665957,0.2997512776107553,0.3235619417679621,0.30643230049521003,0.30099233099715755,0.3204403389568291,0.3188051396050214,0.29981690740241046,0.327531620395521,0.2866356193315188,0.2918925293188225,0.2911076151880104,0.30004360937050056,0.28687941187972626,0.30225824928143685,0.29072780865278114,0.3019312493028725,0.28611454718727675,0.2971789886664965,0.31147316517634777,0.2920800562654283,0.33641911446932204,0.2981468464394369,0.28301947083989726,0.28975233110280085,0.2925694733014065,0.2911302261292549,0.29549765290423025,0.30157770028429043,0.3183136916266685,0.30180085458033556,0.29290122119565803,0.3230427467169866,0.29970093803145065,0.292085105242721,0.3163506612946655,0.3148168018316869,0.2908259731326774,0.29546553351468374,0.2968052482993929,0.29975579949173203,0.29592365619300925,0.2900709287891273,0.30683806700879246,0.30477502280750457,0.3072513218198109,0.3131735210972232,0.2947310882549967,0.28915344984225627,0.3723402636236928,0.29353728573396054,0.297038778683495,0.31585305363289584,0.3374531678957948,0.315841981979989,0.3048860653181415,0.315242086833725,0.31883290895965843,0.29829541016617594,0.28698613924166605,0.30794282670982553,0.3131174073242293,0.3204650385234857,0.30726999783813397,0.3040151201290285,0.2993005731598216,0.29864559301970167,0.2933592854274159,0.31331609203542604,0.29582054705455885,0.29725803633314807,0.2913924841983469,0.30076532988906945,0.3249301484627221,0.29648604196072326,0.29479891622377874,0.30925970565991723,0.2901626149996911,0.3060807903314637,0.2944169176407677,0.29359452433989086,0.29867114198028294,0.3597482757851735,0.30696915319835105,0.30923313492928234,0.29415395538345673,0.3165880100068361,0.30286695537698366,0.2906375542368953,0.3251808418316603,0.29200018706692543,0.2892711072668591,0.3097863464884577,0.3063430440816279,0.3205804886023471,0.31615222580990676,0.28738500872771183,0.30705889455879254,0.3019315235685623,0.28398135611789377,0.2967214857226164,0.2928718299634601,0.3016868991608754,0.3065937958848645,0.302287302010825,0.3001668398168866,0.28777638201819034,0.31206943307107765,0.3068044887231844,0.3024866773285101,0.31838750354382295,0.30167620949555235,0.28943830549903693,0.29148751222328295,0.3041428884169348,0.2961254056266009,0.28816196067298244,0.2956746523710054,0.31333702010352105,0.2994297881286504,0.2962012065985095,0.3033681639695318,0.2935093021146778,0.2953051175852653,0.29978512637814625,0.3208303946078655,0.31433647054495606,0.29837607486063816,0.28791339580585434,0.2844144395039441,0.2974974278198198,0.3136125059265432,0.28692535310505474,0.3058328560895006,0.30043828869793754,0.3058710112532311,0.30146575424466865,0.29636090122576564,0.3081441026736974,0.3068594290882629,0.2990205592947748,0.3196538459723846,0.2962125690831241,0.30155664641197777,0.307654999732814,0.31859615685105225,0.29005409835034757,0.28590869175447503,0.3055387758629284,0.28912524003541074,0.28909381144187457,0.2901511216117714,0.3018292945394549,0.2965770878379022,0.2982112360640848,0.3153179928516566,0.2844576678827401,0.2907348602123637,0.300410075977699,0.3207434297204432,0.30106878005166804,0.2978006492225894,0.3081955456236849,0.31171298950780246,0.2870100349294925,0.30246939517091903,0.3063804463054264,0.30004641046740954,0.29585393657355885,0.3109009128205039,0.30698905229276663,0.3099091063415206
8,0.3097318801727045,0.3015052573208298,0.3051826611812043,0.2889932596458478,0.3120330413142726,0.2912860505612317,0.30869589036775036,0.29279272741781687,0.294153191762437,0.2936614721862263,0.3033963291898653,0.30378433783056413,0.2954399685093569,0.28877848370799886,0.30895548905042675,0.2903760995364197,0.3072881747586867,0.28986513514592965,0.3194152702761648,0.31274797484165034,0.2937164753588218,0.2946292926884482,0.29770264682588465,0.2929679526467875,0.3121166773716121,0.30620073352537963,0.28799310982838766,0.29817951890387356,0.3021709270923037,0.2897899512146306,0.2953329240022808,0.30663806282300277,0.2885527905814582,0.2932555149507565,0.2930604812168826,0.3040544209562913,0.2986114768464665,0.32047406091974084,0.30131113125341547,0.2991880128318815,0.30694533141988184,0.2928412017351681,0.32600090467614107,0.297968827472091,0.2947932524615796,0.32411716881486335,0.30358413601478845,0.30893067150645787,0.2969800689844516,0.3057313657484088,0.2868975268230406,0.3042747195838158,0.3016525034088693,0.30610008434646024,0.30325279816141876,0.3115506839213406,0.30177892040311033,0.31698282772742625,0.31480835633553444,0.3028032370554064,0.3015578541271966,0.29331279419807554,0.28928365543354323,0.29764255413957147,0.2982500104998516,0.3041722613499188,0.2989056531547233,0.28921545639231194,0.3311057714515172,0.3118305825446014,0.31259664424552824,0.2897259227006722,0.2906654111983634,0.31222672335777124,0.2948700401074944,0.3042569675724221,0.3086045674765912,0.2974979906617571,0.30834181208086936,0.3042455603030648,0.2926101194883647,0.29362848700552047,0.3079486129399941,0.29250605759724296,0.2924806414399729,0.2934622532885286,0.29743978135318866,0.3077917674799801,0.2950561157404136,0.290997058608035,0.2858937241695983,0.29303323572273776,0.29887137312389234,0.2931236675628844,0.31705519427928996,0.29325274611682955,0.3071144332923378,0.30452700609493777,0.30942538303657185,0.2964508746438145,0.29500166996379235,0.28849214210077945,0.3135989011978808,0.2891646567321519,0.30558054393098255,0.29336283476389047,0.28985446574808454,0.2850394988021522,0.3020738918420971,0.2840745259873877,0.29942628665503646,0.31476219658231713,0.3177203062986328,0.3222897311303353,0.3086586079097062,0.3139345995540576,0.3027902753502731,0.3182430720190019,0.2957490927344927,0.30552687876208856,0.28740765101344584,0.30311649907418403,0.29747068184823855,0.2970135401336104,0.28711950117520857,0.3252381370017364,0.28726006211911087,0.29278040030248936,0.32810704021078607,0.3026994720576869,0.3029692451754503,0.3095926805428174,0.29602073741081825,0.29346731780852553,0.30353475750023756,0.3056992196792325,0.29337206752068606,0.2982954114128372,0.3525583398824411,0.29750594070938585,0.29141710911558494,0.3052964673941075,0.29560006381788956,0.2944975965652586,0.33022883278147475,0.29433560099933787,0.29469652677568436,0.2924945848513431,0.29178232516537356,0.2904947568025788,0.3007047867949214,0.29915641790742037,0.29330352101133583,0.29435343250762197,0.284834045865343,0.2906032352506869,0.3028043832299495,0.29380283369315974,0.28885576939403607,0.29757410963073705,0.33602121483348546,0.3085566506621502,0.2950239827824654,0.30019171058976096,0.2872494364240524,0.29472562452565104,0.2816499074403179,0.30289847485856247,0.31621703765743836,0.2942887895112521,0.29962492967540927,0.30138557382371456,0.3069727896262514,0.3039412662383255,0.30967282039389443,0.3098472966034134,0.3027822039458282,0.302454284859134,0.3020202319298494,0.301983242301098,0.3000438041768062,0.30351837543947696,0.3020741448889724,0.298250587530061,0.296437317589064,0.30530733510395885,0.3016669261763906,0.2883094363044918,0.30966631750709944,0.3024354066095079,0.30401785056221364,0.3031532984864598,0.2908407680098167,0.3057331427730129,0.2906155643286062,0.30392282492286565,0.2842600103716636,0.29625481843820844,0.2909283045123848,0.29622605178991546,0.2976142346578169,0.3006763511588947,0.29180882082005233,0.297260212015244,0.30407193720173126,0.3044878584468388,0.32450579810893876,0.296662960671463,0.292640604853517,0.29718812318799637,0.28344105278066484,0.2892839438938122,0.31707133921381575,0.3015177118305625,0.28930873942963214,0.30749280831510717,0.28725075886217044,0.2992213659734968,0.2872096192391944,0.2944459327642641,0.2853003780456907,0.2988799519879334,0.30297843211844344,0.3013372664473223,0.2982497919901169,0.3024158284526566,0.3040168598991327,0.3011688904223808,0.28840780119671106,0.2943893959459108,0.3110464513407269,0.30091181036443826,0.3051201771072388,0.29928240244798465,0.32240755642486735,0.29754332699397923,0.3073052328357627,0.29868658676452353,0.2905530368883757,0.3062474738734912,0.3058402778549447,0.3055231778122703,0.2898570683106736,0.3189488838016511,0.30103244496469955,0.3004116004743239,0.29593711511463916,0.2889173654853289,0.29871941155928783,0.2848126468924371,0.30935057534911153,0.29431657937752137,0.30496094334755175,0.2992491145788486,0.3011898220743606,0.30851348362293723,0.30229562894992673,0.29584630891264085,0.2954893775000027,0.28790716801547095,0.3050261955424974,0.30428779537350126,0.30192546539572296,0.3202729470723994,0.3410664245419923,0.3024519537940519,0.31109208196206256,0.2896571375496852,0.3007624366790596,0.30225618066619275,0.29376662387799873,0.302470344804855,0.294596486895439,0.3028237968999611,0.2966893265433067,0.30570872182650455,0.32211466580157866,0.3022738861729453,0.2974947230186311,0.285641110841092,0.29648883874169457,0.3003639413233203,0.2902816246109261,0.30704913637233044,0.3252608483159047,0.30288511365808823,0.28898008648104406,0.2992346386854513,0.30771122515530885,0.2938909319362075,0.2954990442395636,0.28612429678976603,0.28773292202813183,0.3109570973850414,0.29542275544044816,0.2983945469240456,0.306544626038446,0.30838420175975767,0.32201538575468847,0.30504197024101104,0.2856052949571618,0.294128080187936,0.3123876458866713,0.29427072543302646,0.29552093791099077,0.30666226459630164,0.2953306449526622,0.2963790175990517,0.35448418404231335,0.31757287351683955,0.31018982113636484,0.2976388480133311,0.2964943365270529,0.30944956138019386,0.30952587683940863,0.2893686072585014,0.291500751847985,0.29575489844844777,0.3081785043714867,0.2879601931711826,0.30065636123379125,0.2972229655210579,0.2986467312261551,0.3084882998158417,0.29243980664771807,0.28642516665319373,0.28674487514916314,0.29409584898575836,0.30410830868865857,0.31394695820050955,0.3182304077628106,0.29323907329335347,0.29148950634167586,0.3064827486268237,0.32411594259937243,0.302218403345006,0.2990716552256315,0.30391474109633226,0.2898949118997002,0.3057464169505526,0.2877549472972296,0.29860514841483643,0.3044063067337297,0.2898287053158356,0.3133997692630566,0.30112930930126963,0.31504846183793495,0.31027071998879163,0.32649843635750486,0.29667807920233324,0.2945267834054934,0.2888688238754936,0.33922693893911815,0.2963859249125139,0.2929024903172961,0.29488166975039676,0.2900654658176183,0.31990260468779375,0.30354390826628685,0.30132151040752736,0.3024831684184198,0.2974926712194167,0.30807190210297286,0.2861151600886774,0.2953935811767414,0.291392535398318,0.2930177187067873,0.2942040541362149,0.29446691117170465,0.2923284442523531,0.292576329093314,0.3309511834546071,0.299759162823463,0.29436123861309305,0.32747548071656396,0.30047589876935077,0.29928316242065034,0.3279044966130036,0.31443043514623215,0.2888164199255721,0.31316032071953936,0.3172657857554938,0.30058141474848477,0.3140136438121414,0.3052347608710741,0.31277230753409435,0.3159592826240922,0.3013577185891073,0.3144833949840789,0.30230404065367356,0.29860251862324827,0.3039979202392148,0.2837671355735069,0.30157320931779513,0.3006872912360727,0.2836297867214226,0.3191369524593998,0.29762151299554557,0.293473394131626,0.3106801834610349,0.29846367578663285,0.3131532789600694,0.3100004499579384,0.3444549791347565,0.3002489446841018,0.31114295280761545,0.3058809131852771,0.28421033384271754,0.29132988191749476,0.292242557304948,0.300262725408678,0.28399686301918936,0.3106652217155086,0.29555288933099544,0.2969361428179996,0.2937236739410181,0.3011437672093995,0.30138593034560524,0.30080041573031024,0.2910892420727725,0.28696558640776415,0.3217721307991514,0.30050038817322494,0.290536513884933,0.29370853319899165,0.2919501162167355,0.2920934088365519,0.289852417443054,0.2943280298824307,0.28728122318593124,0.29523157170024783,0.30684508939379856,0.2987360340857813,0.2957405187990253,0.29224822516807875,0.29478050313190474,0.30363216296152296,0.2957670889264028,0.3026941975126544,0.2954019977752569,0.28823256399102537,0.28789172742415386,0.30211301325646855,0.3059491462384987,0.2969159840217374,0.2968562101481227,0.2984129046145723,0.30575075695681886,0.3067758588304125,0.3090277564241006,0.29510005912693227,0.3173700111876593,0.30803713936878646,0.3034138898145401,0.30784482255522655,0.29409703801450093,0.3024375372370824,0.28877835456278267,0.2990050302140727,0.30079513818177955,0.29638779701533735,0.3059166236951479,0.2961864538835543,0.3022579461481715,0.3189414730302794,0.3042869010066427,0.3209710680505552,0.28709550050052035,0.29688033449605117,0.2940800815524959,0.2941558845801991,0.3029901775134111,0.3059184488720549,0.3113452655893127,0.2993430629469095,0.2969819450619734,0.29544629377589043,0.2883194390029137,0.29949418825449514,0.2870285082048209,0.2951521209300739,0.2973994043817817,0.2898195541521994,0.2999489565705425,0.2972391623209615,0.29148689876964917,0.3246305652077411,0.3013581235436603,0.3109287791855044,0.29216277697691123,0.31721072812989803,0.3420851248430933,0.3028281673003865,0.3064140072092916,0.3070840378358314,0.3107153366741814,0.2943235777126382,0.33640184526149636,0.32214047756746095,0.29247552801374493
9,0.30190728599944217,0.31632677351823013,0.30619729477371926,0.307170902155666,0.3065742269067545,0.2965313529359803,0.29634820297247716,0.3038071873982126,0.30187379713493523,0.31952424471938917,0.31476563495109733,0.29331073360465576,0.3079141976461121,0.303483413350771,0.2985493292693807,0.28795985035919375,0.2966665625773903,0.28841497887369,0.32492896245696934,0.2922060377597147,0.29509178728664714,0.29750825350345445,0.3100437459937818,0.2980049046727017,0.3067286931139265,0.31410836919281404,0.2922260117290506,0.31887701427106785,0.2895860268132576,0.2972316823584659,0.30330424457487387,0.29498595461098154,0.3035231651492354,0.29339173602964497,0.2904810678278404,0.2872374116434867,0.30763048686230304,0.30551574083787214,0.30515753300858445,0.29279166146864954,0.2958347026308329,0.29172015904583587,0.31647218287032336,0.3121429753312877,0.3000774268510594,0.3048150347593994,0.30347257638635894,0.28511022761533333,0.294511920101984,0.3009264937713799,0.2904182114598657,0.30969826998221006,0.3006110560817024,0.3117103282228077,0.3027467110387822,0.31081667509707905,0.30264154092704076,0.311877202441767,0.29940354295423466,0.2995001856254234,0.29799081861678794,0.2919308960024921,0.29300104275796,0.3127755270655164,0.3003656924728064,0.2975275474347536,0.28719218759232595,0.2954765998609188,0.30442272395411385,0.29467648483337366,0.30250739351760025,0.29518875307436065,0.2919737186743073,0.3057525939026621,0.29811848193984414,0.2948588464358453,0.3086634354464442,0.29416339211393266,0.29461209459315385,0.3051035975578491,0.2924360776517977,0.2857731080389112,0.30529897125686867,0.30765605675413693,0.29476869429928754,0.30965065453973695,0.3022543166876501,0.2908547812324023,0.3092758825675769,0.3040272717059251,0.2913822638055271,0.2846413577075282,0.3068533335565865,0.2974914142445172,0.2904420687871588,0.2960176831652221,0.3024743344485251,0.2839505725943988,0.31527850040691674,0.28840309450099244,0.30321418968585956,0.29733464205508014,0.3091652249485787,0.29711508208870974,0.299101151146555,0.29086330699384055,0.3040928076543928,0.2878202355258751,0.30977022006496335,0.2879112424580706,0.29413358062789435,0.29583433267222486,0.3052509558339258,0.2979352301254304,0.2924942933988644,0.30684483994272527,0.30415891904470527,0.3251154102263053,0.29673537606405664,0.29024272731926726,0.2897251114533801,0.295099252812332,0.29167905186606286,0.2908889342320389,0.2953148769904289,0.31247200046754353,0.2891513722715361,0.2835676617596394,0.2863736871010655,0.2987218511989224,0.29913738548845636,0.2960315600414489,0.3053384131834591,0.2954802298685798,0.3046838153158946,0.32335824993259726,0.29341263576881893,0.3125464738406142,0.310627186402641,0.3047216834811628,0.29592110448609577,0.29279421694909946,0.29639942487958004,0.2943232679599982,0.3065804409021511,0.2912390616088064,0.30079721657124214,0.2922467543682221,0.2963981876802573,0.28990956326498374,0.3050066279246003,0.29242927306580957,0.29251836082129345,0.298208916904581,0.3051631995179378,0.2876611429079193,0.2834005007592157,0.28929114691402813,0.2971520691846144,0.3162340560224456,0.3195395282360288,0.28943783297630793,0.2930334134538261,0.29926324815160943,0.30034783698348966,0.2842490449713138,0.28867156316328824,0.3047934349756932,0.31626275183676267,0.3061298046768314,0.31038722184605405,0.2988729939369851,0.3050980561395192,0.3083996900684991,0.304836226745279,0.30785553256335707,0.29986394841052294,0.31902755015628437,0.3074727211058887,0.2833983960541529,0.3059960996350517,0.3030718845769137,0.29440565184886813,0.30539225843107115,0.28730335820227054,0.3473165668301544,0.30611155245266997,0.3074526108833776,0.30288758944383704,0.29933477182491586,0.2972667789835879,0.303431973925953,0.3015681106781157,0.29935560165899594,0.2996980380254778,0.3043525631581906,0.29418024475538074,0.29589472813761136,0.2904159226201807,0.29367907073754784,0.30047300565642276,0.3110551862679798,0.29998572645763827,0.28745854481421895,0.2929128891611036,0.2974025863470248,0.31709178623581713,0.29003644770553505,0.28888409803222515,0.3033791285797993,0.2957679947021101,0.29325512690158706,0.3138805107288435,0.2895352440260094,0.2924545580251169,0.3043903897200871,0.31344140442181334,0.2970671726990862,0.30624851348341015,0.2952031867423187,0.29246939874572125,0.28985162159967703,0.28959974621885226,0.29619098476862316,0.28779790069437106,0.30294562573922174,0.31045286329965627,0.3021728750275193,0.29889551853034013,0.3052044588644096,0.2972374586808523,0.30329918825937097,0.30181135444022694,0.2968285280566459,0.3139171796091451,0.2928234514740729,0.2971072454573932,0.3030894856843785,0.2877174783016475,0.2982876709175581,0.3008704956045049,0.300363824784624,0.2926083446744545,0.37111125500961406,0.28935402927773896,0.29737461455777725,0.2931226186497688,0.2857414025751159,0.2997158979320333,0.2997917053337745,0.3127357293970423,0.32538257303789353,0.29595047819448345,0.3035608919711643,0.3071723582086139,0.29959920220154274,0.294568082567066,0.2967944634620299,0.2885674816473514,0.303138551979008,0.298905497415774,0.3009169833943108,0.2988420185682823,0.30311601877101,0.30954448706608584,0.3169254765254216,0.2876070241042851,0.2881587667369852,0.340083669239644,0.29816046986311406,0.29338349598637736,0.3085920980949758,0.3229742010310056,0.29070007914043117,0.30184083885407453,0.302021372667691,0.3285637231228855,0.2980446781814299,0.3097930127180696,0.30983606269655173,0.2896159454134105,0.3040175936875335,0.33531784628407946,0.3153011995723519,0.328436518898642,0.31130026059576954,0.2912437824095089,0.29369755756509186,0.30293972226500043,0.299707758613759,0.29365254893663917,0.2861602209898682,0.294975413336969,0.30453452571724005,0.3073538595652343,0.3200650781626901,0.3132718442299529,0.3066992192391754,0.3070091958950284,0.31121575620387665,0.2960624671407413,0.29106313850161813,0.3108798892002018,0.2953304170620921,0.3039504185091954,0.3044242609413307,0.2944706950027677,0.29425129872998956,0.3265600917750585,0.29727849570720055,0.3022903314026396,0.2943575310460325,0.2951206017013629,0.2844668870743824,0.31528470859041696,0.2888584672604912,0.29710339948601383,0.29999020834002377,0.3153664161557174,0.3020744832401311,0.30053598797347886,0.29397962375535347,0.3090540038787012,0.30501256342404665,0.2941223119777672,0.28958773958503764,0.31133716147462026,0.29545761606122084,0.293586816569985,0.29261205755360764,0.315992602483735,0.32043886762766427,0.29695277869758996,0.30688646735415503,0.32858174938694795,0.30522478604743386,0.3029944462856509,0.2994524504143591,0.2932863730736167,0.28536813183196685,0.2887775267910419,0.29041763935410875,0.29844845419557353,0.30129395013515625,0.30395591450692516,0.29749214621677905,0.2976706209853902,0.3129381526037961,0.3339939649279241,0.3089785499447876,0.2900152053775315,0.2891621170491264,0.2860621636316106,0.2931502879813137,0.30325844603796626,0.2967014002351668,0.2915019937083099,0.32080627768051767,0.31550675425531705,0.3012764938164354,0.2981235786185997,0.29726076324245165,0.2949322333878993,0.2899502853085008,0.3117332858556746,0.30715949334532044,0.30188304219269896,0.300874902513624,0.2968374136739921,0.3050666233957008,0.29098428578373403,0.3155535664634991,0.3142426410977252,0.291661066591884,0.3429053092142718,0.2925306038527654,0.3022311252074774,0.309215717609671,0.306472165027404,0.2950637729156072,0.29766143113719357,0.31722042810557105,0.2971292717283558,0.3151668688958219,0.31361780256819594,0.29958781982038796,0.2879736926974573,0.2957833151835584,0.30026223584501177,0.28979144025800824,0.30510594824047155,0.29468153516976814,0.29300575291231906,0.2990570007308119,0.3145734418574942,0.28567095466927517,0.31375411704356637,0.29440811381756615,0.28919283013912045,0.31045041413707214,0.29546512483871334,0.30806454593561117,0.2954415538318953,0.3305477932230979,0.29686607804261944,0.2965286617021,0.3078980684406879,0.2896912569189264,0.29848235594620404,0.2925828161640522,0.2986058999859866,0.29926177834821077,0.33935703610858525,0.28915752784435583,0.2943990468053255,0.31549614842002355,0.3033325694683507,0.3234107657645002,0.29151419597397693,0.2866752275752196,0.2911861150814979,0.3022972187697987,0.3007711192811106,0.28151268381838773,0.2959251353486853,0.29148840874021703,0.30949992782814245,0.2915782915887704,0.2958990789914019,0.29542965989319125,0.3041618173289161,0.29792369278511016,0.2973946859566294,0.2965088672168551,0.28897707893145147,0.2874468936347312,0.3061471933533724,0.30989450499403043,0.3427788736329974,0.292991350158418,0.29264851252198826,0.3041524676588487,0.3001014567384451,0.2967813965388702,0.2901364872948037,0.2889999953999657,0.29718265282664647,0.3021041889510503,0.3005919498900945,0.30539457107662393,0.29587757437824386,0.29391685377856513,0.29591556245543127,0.3112146738019479,0.31254042627868134,0.30264269573235214,0.2946164318695746,0.2884822498282109,0.30605889380071505,0.3061571119710736,0.2963482884808092,0.3069694411680809,0.3012957688897882,0.3020132517047277,0.331414372086742,0.29397168645433613,0.303961158664218,0.3193459217863929,0.2928242836190714,0.2971449511097218,0.299064614076092,0.2955989218547939,0.29366383186085204,0.2923617909852001,0.29912475385714715,0.28469602280825507,0.3149594823716919,0.29658712298540435,0.2987770941473781,0.29647418110470874,0.30261422003667227,0.2934307392036203,0.2930571889540028,0.30082632316257674,0.2906700173760147,0.2924465804339914,0.3005003287516471,0.2893132546971867,0.29809397827470036,0.32357383311966376,0.32312992021504006,0.31162461024245297,0.2992328319825276,0.31379447058989446,0.2945899299217668,0.2976780708308209,0.2984442372194439,0.2929992874464975,0.30579836144026107,0.29665899603836526
10,0.29918480592973684,0.28640437961490894,0.2972020578540975,0.2981588682281453,0.3079599330745101,0.29137855174047356,0.31976599198484373,0.3119687871641943,0.2869392175869028,0.3035941749291359,0.2902391140229247,0.28948147131442203,0.3015582741976376,0.2955543214639952,0.3174426648283998,0.29256277974421785,0.30199631501030677,0.29307381040289643,0.3136782649121056,0.2908881993820859,0.2930573897289923,0.30098305457231395,0.2962832290161203,0.2881407633670222,0.30502909635213143,0.2961160727795623,0.29441542366126583,0.3017501785471599,0.3059922092697456,0.30732599645108766,0.3130413950525336,0.29369612507172915,0.2892384884315411,0.3076981862212387,0.28736583172491637,0.2927438912741859,0.28869001012638024,0.30219159178044747,0.297063142619852,0.3011086108956092,0.2963921861712233,0.2926643395151648,0.30990441912595657,0.2954459236069952,0.31003304930387265,0.3174150791921176,0.3017117485499313,0.3256324364413174,0.2909570681250356,0.3014199877417306,0.28604161817826035,0.3181046944148571,0.3030553071280532,0.3194178635910358,0.3113326714746721,0.295332115188382,0.35235307367099267,0.29917181950400085,0.2919503064146921,0.30472686410003885,0.29513906004926505,0.3062434410505429,0.30383121542928304,0.31101635204480277,0.3059737389922721,0.29268385361776245,0.292221312115036,0.29629332540501646,0.31844377725177486,0.2958336441758784,0.30262220077141266,0.2948102261036505,0.31077836303045137,0.3037374786938322,0.30215832299218875,0.29300109825564524,0.32156760716123206,0.28841914176080174,0.2970172770941393,0.3099022938989172,0.2862305315269281,0.29465493470104354,0.3344452608698667,0.293494388473295,0.2905282830105139,0.3035637272747771,0.2965409455674784,0.2994250848396217,0.308121062993791,0.2955102113237601,0.29725069181701635,0.2925925651590666,0.3132966990322085,0.29769781958807373,0.32142583421417414,0.2863567681425882,0.3318554774909667,0.2933683910102834,0.30662120988050423,0.2872053431810696,0.30133216494356635,0.29507549234069613,0.3177138527753692,0.29433662956113554,0.3154044420838259,0.3038566317972374,0.2949817290191789,0.2890643000697223,0.28983557909082697,0.28849124741054444,0.30076188529909614,0.29024954492072685,0.29941843574643756,0.3193690639881284,0.28942731114240006,0.33899773808493955,0.31044994470158765,0.3082854312457183,0.29003635079143913,0.3041785811397763,0.28928289007453944,0.2954164226463968,0.2926201114792216,0.2913077571401948,0.2954435342903655,0.33866211164337295,0.288821180936618,0.29397444991488586,0.3142616871276084,0.29748399416931276,0.2964690678882665,0.30542112889611905,0.292412377505742,0.28996050278396895,0.29215827356814733,0.35351089606691344,0.3007941575058961,0.3331301424341889,0.317700494888546,0.3088234299943881,0.2979342087813838,0.3055537989261127,0.29520051909297357,0.3050731464946764,0.30166015297484944,0.30788990488706913,0.29855628761277553,0.2908607292928448,0.2838698827538505,0.29390537507508074,0.31709865031627277,0.2945469111761942,0.2954428132283918,0.30013794156684537,0.2915004913800983,0.28944601574999906,0.3037138247146656,0.2875208721857701,0.29080462315525474,0.31066692080143243,0.32064930163006566,0.3052599284006425,0.3072747895521081,0.3067872881321927,0.2921163633660017,0.29001803380932434,0.30051541664659703,0.29439826731310126,0.30245703591750833,0.3030948815661726,0.3019081650888057,0.2892332473854467,0.3026979542227274,0.3055595701802867,0.2966530598593875,0.29809945506673885,0.32017006727170394,0.295670498405575,0.31316261565001313,0.3013940185341208,0.2931124955662037,0.2951165764645393,0.2891953798859919,0.29526770502757443,0.29236708329025,0.33721357169304234,0.29436769318675526,0.28852098138487575,0.30066190957229405,0.29216114401757054,0.3133581055118148,0.325027785128889,0.3036793477049503,0.3067083881316564,0.3046332273830142,0.3006891069657099,0.30293785210556406,0.3070316370576187,0.30057202092533475,0.28679462202482264,0.2975587597687828,0.3070736158646842,0.2984688370382639,0.30020620077142535,0.3024703161800306,0.2998999328276145,0.3056451273415873,0.30841550839125326,0.2922940947078133,0.3164691756888828,0.2950913753119192,0.2992059723090957,0.31604830343998286,0.2903039461297504,0.29111818078686647,0.291817326792292,0.29419540202129973,0.3121396939080305,0.29307222806944166,0.28647791772997067,0.288927437016175,0.30383955120058537,0.29557477015325806,0.29101391620498496,0.28663670229117855,0.2981836549075102,0.3146952505392811,0.3117676894945105,0.2892379128996299,0.28684303326735183,0.30816849206034697,0.30034745484272884,0.3081116663772323,0.2873018177292127,0.31217139530964044,0.2915321528806545,0.294829221014322,0.2917178473158698,0.29097193262381926,0.2926298247757369,0.2919956809435328,0.2968989661776836,0.2918384538297898,0.32274951744686364,0.29715360488467046,0.2978219186428621,0.2945744441015533,0.3237804222649204,0.29361592476427156,0.28468927943196315,0.31044796949477976,0.34731530454186765,0.30829535332839625,0.3082292020789737,0.3151030208020961,0.3098777086603578,0.2927306391648342,0.3056577645416283,0.296390434980433,0.29588193412338587,0.325389041852035,0.29067258327130807,0.3021595203862967,0.2895267572281067,0.3035757946397166,0.3174981300646993,0.2972085590117034,0.2935701952612933,0.30900340490362127,0.3066137082894836,0.2923957322217769,0.31058875797345353,0.29134920892642363,0.29515457995587335,0.2898262256487216,0.32602105515530144,0.31690126603750557,0.3006450543421396,0.32382844725673643,0.28317307312540996,0.30332601615764415,0.30118774335997356,0.2956004405316252,0.3112719965309694,0.32550335918397477,0.3095926986156473,0.29656096941499066,0.3090986288984382,0.30527110155489406,0.2986177568421088,0.2984416719479707,0.2821612679678158,0.2969974542612436,0.28841471667196095,0.2899403891428082,0.3124793936510247,0.3165883938638122,0.299194424111176,0.30166901694746295,0.29941124753530757,0.28298932481230177,0.30699059644413096,0.3057802801672993,0.3055546669463933,0.3019127858476084,0.30977963120002217,0.29525127473989005,0.3028965386048994,0.32603972055541625,0.311367065249324,0.30617989569257387,0.2971141401554186,0.29161352666080753,0.29663458433676493,0.30871066942536707,0.2883940968231854,0.29436061252387863,0.30082019512939195,0.32104799871080264,0.2981013362168009,0.29640881615060743,0.30459375241470044,0.29494912043398613,0.3037065233988187,0.29222721760728637,0.289639179234628,0.29746444476113465,0.30410899400762464,0.3063302210806645,0.2994857180610938,0.32552471800536104,0.2998170507785884,0.2942197823816522,0.29971057222371356,0.2991703538665346,0.2965186918721193,0.34617708871452696,0.2908101437507568,0.28755585929551536,0.30280059985607527,0.30249910720327977,0.2942775534455021,0.30361168510145375,0.298453813335736,0.30398891532922684,0.3017929569229397,0.29439022405188486,0.31463192043627247,0.3131234523020702,0.3083082045630977,0.29605567917532916,0.30032564231830533,0.29776091109800196,0.30779394154894496,0.29953655904306026,0.29244005267085577,0.2893630463098059,0.35499791337746633,0.30639575870188057,0.3145458841076407,0.31011609406864465,0.2968784188160988,0.30341159689786606,0.28825329257606186,0.3158948107680589,0.29774113724235934,0.28853915119807605,0.2920578996575599,0.2930304687954931,0.29953675853368666,0.29261356652953574,0.36198501543350103,0.31032863439850356,0.29019433597885375,0.33026484673685064,0.29645842503809167,0.30255160186901725,0.3234594396383842,0.28845665629444406,0.31266826346036714,0.31541962973183246,0.31267677952845896,0.29631853451741397,0.3083233623222902,0.2949893683722484,0.30296155381061474,0.31583647586463626,0.32699541288414974,0.33715469904374795,0.31080023735722156,0.2962680130572436,0.3069052144201948,0.29307463850181986,0.29655623126074565,0.3011790601176453,0.28411703103705854,0.36259920468043394,0.3010486683844163,0.2850867232574697,0.309652737429969,0.3060250672457062,0.30100177699027475,0.3092070025599082,0.32033183257304254,0.28811120146930647,0.2945714290640247,0.3129348465799568,0.29107873253875016,0.2928302971357283,0.29661703740354173,0.298695243068051,0.2993040155550373,0.31927252781885446,0.3084186886578027,0.29513181952013473,0.30649731776016204,0.3082909322834016,0.30688680682295766,0.32499868187650705,0.2871702612562278,0.30451352513507923,0.29203540684896806,0.31057701184304165,0.285152011728315,0.2989052423041417,0.29918118963342705,0.3003619228584452,0.29274320026099027,0.2946391750716538,0.2890484326128662,0.2905151683666493,0.2986715133469111,0.3061334291422602,0.30493178606761345,0.29554918383847956,0.29250379109905167,0.3087039713549627,0.31434461814533415,0.31231384413792707,0.29416829487423807,0.28588553379976755,0.3044421040518682,0.2963306131262274,0.30734660344524534,0.3014165824755654,0.2967984208087452,0.2934557762936603,0.2926550186332232,0.29800178388418547,0.300624286618574,0.2940394524816904,0.3036597033386419,0.30535747627910054,0.2980488247441274,0.30949483607656236,0.3055142684583861,0.29680728497094877,0.28610592752549924,0.2906192365525911,0.2979395587681562,0.305633476925263,0.3069244715030516,0.29360352139738455,0.32593232859221255,0.3244377490865602,0.2971596233044611,0.30280779825181237,0.30261097012552063,0.29030012187360815,0.3063944685194611,0.294725687653663,0.30524352567960045,0.3037365516531835,0.2933291369404126,0.3123919050703362,0.2949372734476379,0.30838444521988084,0.29901589843414844,0.2862880140871602,0.28804755428391193,0.29624140609000876,0.30794042582983655,0.29741862687384507,0.292734273984715,0.28511826137244656,0.2984091019447346,0.3074587000077527,0.29013938074790874,0.30259681986259646,0.299464255051688,0.29917918635598867,0.34871340899910985,0.29276010314238865,0.292258045738533,0.3069817067528368,0.3051753455884472,0.285488806049326,0.3054926755473586,0.30345620487345815,0.30392672310779667
