t,rep_0,rep_1,rep_2,rep_3,rep_4,rep_5,rep_6,rep_7,rep_8,rep_9,rep_10,rep_11,rep_12,rep_13,rep_14,rep_15,rep_16,rep_17,rep_18,rep_19,rep_20,rep_21,rep_22,rep_23,rep_24,rep_25,rep_26,rep_27,rep_28,rep_29,rep_30,rep_31,rep_32,rep_33,rep_34,rep_35,rep_36,rep_37,rep_38,rep_39,rep_40,rep_41,rep_42,rep_43,rep_44,rep_45,rep_46,rep_47,rep_48,rep_49,rep_50,rep_51,rep_52,rep_53,rep_54,rep_55,rep_56,rep_57,rep_58,rep_59,rep_60,rep_61,rep_62,rep_63,rep_64,rep_65,rep_66,rep_67,rep_68,rep_69,rep_70,rep_71,rep_72,rep_73,rep_74,rep_75,rep_76,rep_77,rep_78,rep_79,rep_80,rep_81,rep_82,rep_83,rep_84,rep_85,rep_86,rep_87,rep_88,rep_89,rep_90,rep_91,rep_92,rep_93,rep_94,rep_95,rep_96,rep_97,rep_98,rep_99
0,0.35683761083446663,0.3104256086703334,0.3286735517584575,0.30900382383731506,0.34856724234249503,0.3161450963991802,0.3261010678910642,0.32365953853296114,0.34121153152336425,0.3348824904822275,0.3343524911663662,0.31588229037656895,0.3229019776444722,0.30365589052658953,0.3148192732458901,0.3298020630208033,0.33186215552917947,0.33130252748927524,0.3218013058600096,0.32036552545329106,0.3210101935352805,0.3267502471371251,0.32538592171189845,0.3325350040517385,0.2913620936002236,0.31239111353013427,0.32945323512037344,0.3375342538185818,0.3215426887728204,0.33608674057056287,0.31972187642581323,0.29648140141183027,0.31530941365353565,0.3420883777670446,0.32465965336675867,0.31835463124976476,0.3128047844595543,0.3280581771029513,0.2980265999182935,0.33912216850164445,0.33651172638234844,0.31108677862515366,0.35519785698385176,0.3136510371753528,0.3332454037961551,0.2977146822390478,0.3260900246351098,0.3290291945606537,0.3273176273199446,0.3376437912876651,0.3169127008244768,0.3169098724997831,0.3305600845400634,0.3196718151877313,0.33116994757179935,0.33330489843318184,0.29903713860156245,0.3406154901356313,0.34760101385776,0.32611583259232535,0.32452820283040923,0.3262558973734616,0.32996083377960245,0.31955148535643746,0.35375000197676354,0.32877667345154166,0.3331330108022653,0.3357746557544173,0.31225126483479215,0.3154960288582173,0.31364883555807654,0.3382783582501785,0.3269509460581948,0.31824154916949526,0.3225852704361967,0.32123630693607275,0.30920735661291066,0.322166206007164,0.3297576913071446,0.3230684961719707,0.3176003256091156,0.32539715212625697,0.3392907038055605,0.3366264012678334,0.31647971700480604,0.3267135414330681,0.3265597104778829,0.34789772519235934,0.3273247997286434,0.3267428084098175,0.32018004269545675,0.30751339543032574,0.3071599119036485,0.31046026859513615,0.32136742434187654,0.3122650830086862,0.3593252624562607,0.3512962346459737,0.3175954064038833,0.3533871733362187
1,0.33234020663146335,0.35863755052013035,0.30332690489773917,0.33760652913427264,0.3201445287172132,0.30258473406223557,0.3198627111830778,0.3054714453399986,0.32929273645040824,0.33796036388074946,0.3236563056192755,0.32142992799267983,0.3230169436120264,0.31582145218897106,0.34715163320094666,0.3134145916559109,0.3331897099584079,0.3315155719172518,0.32835883015244705,0.34177711525750254,0.32976199394742994,0.3490235010359485,0.3235504742530229,0.3138989353942782,0.3256568090254175,0.3103157374981405,0.32107966384171993,0.32083332495975264,0.3171950809856631,0.32449492791508205,0.3102417540343153,0.32537426142783715,0.31400517150604246,0.30695274533112793,0.3354066895452383,0.3288387856875955,0.3218110076029319,0.3046464342621913,0.319548293643489,0.3309130501832167,0.3344378594674352,0.32253052243860336,0.3547635431260622,0.3409173185851168,0.32646094908747175,0.3338218587525929,0.33197712327233847,0.3289379226559383,0.3450205466025573,0.3282522510769711,0.3354594710284936,0.32480423002880066,0.309331039634286,0.31469987755520096,0.3363286421084455,0.32846100500316144,0.3258314777448716,0.3266429836902974,0.32580631652811365,0.33702375275529023,0.3083933430835289,0.33383371200394585,0.32025552434496224,0.3254900537171117,0.3258086367178599,0.3238633369682458,0.32032417772817706,0.32469301786144256,0.3241513234365676,0.3296929148513309,0.3143169253697627,0.35629804226917094,0.3280196737207719,0.32895160892250114,0.3498703219577898,0.3051318305550367,0.3417716239980654,0.3516895206304363,0.35028372741381786,0.31371781999279835,0.311331176938077,0.3063872055113321,0.3190650326271586,0.33119662689910767,0.323000174905204,0.32504366359481934,0.33614294255750093,0.32748266695415096,0.3158500952486239,0.3273939729330568,0.30591360906328463,0.3473420943702666,0.32425292520905274,0.31412645710890064,0.3277514103785061,0.31743676691146083,0.34739650921443044,0.3392297406554904,0.3341485157931897,0.32423814590819006
2,0.3332277522992068,0.33086723825327524,0.3188546739752945,0.3214218472676414,0.3198247291802387,0.3179927851435439,0.31131607456823873,0.36843782743456766,0.3359478677031821,0.32070590294774853,0.2996559758125136,0.3468021223402237,0.32374025181885374,0.31487406353346903,0.326444256719172,0.3138273097053954,0.3227220234555272,0.3439766260834579,0.33809341799362336,0.3277440688826194,0.3330528612914069,0.32103734674627116,0.32031833559016804,0.35075605002742316,0.3388079394265346,0.3227626154244056,0.3405068035025099,0.34631642012293756,0.3151702023765076,0.32271458873236947,0.3304700422732801,0.3138054508162039,0.32612714784580243,0.33350620683264226,0.3243000736598022,0.31531549392814234,0.32412379862399743,0.3481856176623227,0.32720206434674576,0.3447498893108531,0.340277888447304,0.3428047261300247,0.32811372158564184,0.3258610860520507,0.32879849328124455,0.3226620527312299,0.33426504285398506,0.3072955882209941,0.3272870192448881,0.311560334020233,0.32589815262155436,0.32609110855645274,0.3108285798729121,0.33341634897845407,0.30121195135666967,0.3392741437400623,0.3265282852652269,0.34835259883756453,0.3272720946621052,0.3415699177764471,0.3158592769542589,0.3083824336358355,0.2978715748277001,0.3276584914441336,0.32950308231761094,0.30727461220769064,0.3063046830813658,0.33315070102053956,0.3185568771745848,0.33588926735512425,0.33013900065889495,0.3001231525498158,0.32456837251737103,0.31115179563468565,0.327243965884329,0.31131769180260516,0.3328189533358532,0.3051500960218899,0.3186931716663217,0.3249619627312552,0.31761654665704786,0.32879583979591154,0.32059368075298267,0.33576509663127946,0.3176221081602687,0.3035552522024034,0.31951990136854214,0.3318674923775836,0.3286481993306725,0.3422833096861686,0.3060753195161025,0.3086331913887771,0.3149899378950548,0.3129397088414036,0.3112767277852135,0.3178143888617321,0.3339489195478161,0.3390686992782367,0.3263294355849385,0.32002299541384605
3,0.3266549900956307,0.3319793390304364,0.3471317917609815,0.3208160865051751,0.32593730693922474,0.30596328096986564,0.328002933381312,0.3665861682428136,0.2994131885908216,0.3222312443378524,0.32465909950160243,0.3281232264582279,0.31538598325285716,0.31426277585482787,0.324723953868841,0.3342080977639118,0.32089033034344683,0.3390377614757899,0.33213010798044446,0.3083555605427345,0.33461378572729855,0.32738439714728795,0.3423607583870877,0.31696548302679417,0.3371558936871422,0.3370235320020564,0.31528591910655723,0.32468645082306646,0.3156423150687663,0.332363885811939,0.3258215005818748,0.3115537587937375,0.3207329117873273,0.3186778194032087,0.3434077802112752,0.32160647504584405,0.32429553494240776,0.3323577642351592,0.3185950771217615,0.30384164586525764,0.3013483116477607,0.3267112181714637,0.33567569424007526,0.317923877872166,0.3042953818172228,0.3362950450272363,0.3304166411862067,0.3201241887162044,0.32142047559539244,0.32435900693816955,0.2982261331035517,0.33933741782074484,0.32796477749744674,0.31864906767170853,0.32075380324722585,0.31336287325589945,0.32251283199550906,0.3179132888863923,0.3022309507258462,0.3261206921568406,0.32014444630519673,0.3053836318743841,0.3088744417620586,0.3082016453402702,0.3231107110216791,0.3121433876368337,0.32791875069041265,0.3496428175495394,0.3068003622198746,0.3225024440782639,0.3470243569412773,0.3118885571850119,0.32527038779847145,0.31049982299087625,0.3119232768762454,0.32237326333826233,0.3521660070613476,0.3140510162839509,0.31077067652238927,0.3207129052764944,0.283845922096594,0.315945912715726,0.32841306245802193,0.31928893486645415,0.32912285143194164,0.34080547023116775,0.31946589615813775,0.31578730896009005,0.35322577339618244,0.3337712097855164,0.33482480708981827,0.32723397583162755,0.3258353578839565,0.32639519558370306,0.3289178924129089,0.3296342126828491,0.3414808119940178,0.3451966746844086,0.3227325012391124,0.31341414461819117
4,0.3237725977201781,0.32928150616300345,0.3429934635762758,0.2995107453116313,0.34888024037725085,0.3246082686613384,0.33168365310929265,0.32760973698774143,0.32913728071221143,0.32259632896170387,0.30449057997163337,0.3321754104064692,0.32170823114188407,0.3125278647753008,0.31104094644305713,0.33920612267894584,0.31424091396683196,0.3222927116264186,0.334224447485774,0.3082847829384391,0.3166582608554863,0.3315452956357587,0.3068358167030576,0.33636210428066127,0.32864919452343233,0.32265469936434665,0.31508329551551667,0.33608825795058445,0.32382889358296424,0.3107604561114777,0.31180761940709373,0.3081814792905505,0.32560274339663986,0.35605801207006366,0.32511861533168346,0.3248564564976314,0.32263886411533305,0.3462252308885666,0.3183760857487803,0.31515590463891563,0.3319957495767176,0.33603529099473756,0.3333109154646653,0.31889085467304806,0.32386558755014727,0.31301769703868565,0.350805893293806,0.3426733576162324,0.31140968631804106,0.323077294374315,0.3277329237301645,0.32023245996407274,0.2939201896038868,0.3147565711580705,0.32427144228078214,0.3395494494392082,0.3260731118890196,0.3390904617669447,0.3175796012605058,0.30465398632451357,0.3173497403376657,0.29746540540296207,0.3310177516349433,0.3206162980237738,0.3245277497998077,0.32687112841632154,0.30349558039807906,0.32143904910380866,0.326530128780946,0.33130083293037316,0.3248612369908624,0.3363858958446676,0.3348122304279234,0.32190689129992095,0.31959325651064485,0.3173583532419727,0.31426737159323237,0.33820108844502034,0.34649881999170595,0.3166039603578689,0.3137738714356596,0.29264444375038634,0.3143888786654637,0.3368801968989234,0.2918226990687815,0.315380762508391,0.32120131889534737,0.3309787422792776,0.32244545019909465,0.32771573933672127,0.3157275527315997,0.3325929847900745,0.3347863699618814,0.3275856079031266,0.32652574044059957,0.33911062366199485,0.3317019706131887,0.32977737298442755,0.3308580955180077,0.3333907247438258
5,0.32446728495388644,0.3214369373550643,0.32839123624745153,0.3056590183855945,0.30850431844962045,0.30509699972961757,0.3115672384839531,0.35507485771813063,0.31745026259155956,0.34075830306849814,0.32495363103886704,0.328879521035726,0.33275260854553323,0.3161848936611531,0.31153447141948454,0.31914120676546653,0.3104685220958581,0.3050604177633349,0.32571854476206485,0.3140223876629885,0.30334208866892276,0.3367112898699255,0.3392135054073415,0.3460417915762868,0.33081015071369957,0.3391187794530319,0.3215674142262134,0.34215579488211995,0.3245239316333964,0.34114191528032684,0.33035046527514017,0.31969620876587024,0.3215492007292082,0.31871872677418545,0.3168937752446595,0.30811149649511616,0.3283561957020512,0.3321844673934912,0.3222085802507091,0.31568748285014553,0.3204361512904694,0.3549593000909209,0.3349887961897998,0.32655772024196705,0.31799425353172545,0.3014784464541107,0.3140202477203974,0.323877604054687,0.31481310588924327,0.3238061827022553,0.327193351600391,0.3333415261172777,0.3035330312541367,0.32459168014227663,0.3372628501866931,0.32219303715375763,0.3166881549381485,0.3268821038059962,0.33346656101344824,0.3097959512247684,0.33423173896659525,0.3092702224724776,0.34280874667405487,0.313773338847534,0.34513978401694223,0.32701816244552806,0.32817075082354374,0.32998889247609053,0.32691340817026904,0.33180657979243694,0.32262955853398234,0.32317789104384864,0.34321930455847066,0.3281378599949759,0.34034613004225667,0.32052678424434894,0.32970067601335207,0.32631574172263067,0.319800828119527,0.33623810553185285,0.3242791330803289,0.30677742701429966,0.3195843302362368,0.3355558158341019,0.29520415481496454,0.3120550591359459,0.32442225997764923,0.316357388691215,0.32122837356505674,0.32227202685628104,0.32292106917946867,0.3562488852769409,0.30515738424227024,0.31774832746666093,0.3125987096106077,0.30924698579739857,0.3303378034650323,0.32707119333299967,0.3714908656221329,0.3321215927167317
6,0.3706016129279618,0.32275645666239866,0.33758988984672883,0.30528850536623686,0.303498739328037,0.32000858364982887,0.3388123350490863,0.3409871005250972,0.3169993299835224,0.3258204891789348,0.3329517639976668,0.31379908287612235,0.3097306146780287,0.3300346753689024,0.3131123890528819,0.31502605106710874,0.3198537438659096,0.3077841865956258,0.32691389039930846,0.31880277101151083,0.3112826536443529,0.32317347509793326,0.34922290342835666,0.3443472452317743,0.3220710133396019,0.3272875305652755,0.31094058008196146,0.3431573571629933,0.3157416039690597,0.31188939096192436,0.32483423684637375,0.3154741439507073,0.31272027558459353,0.3120055404722914,0.3289647716987428,0.3343727142944377,0.32312767702742845,0.3390253590530055,0.33122165502093076,0.32587296885834144,0.29328410123252635,0.3055243484802183,0.3428394599470505,0.31351279549226996,0.3184797830859146,0.3246977848698725,0.32912603720455763,0.3321178604282583,0.3327519359750555,0.3344369418328198,0.3278553135678105,0.33159404237769985,0.3175172903652041,0.3204667506598321,0.31584172381087444,0.3251765920065567,0.32686818942120055,0.32979756406949623,0.3158520861363822,0.3229833061403125,0.32983027090983535,0.31663559217635007,0.32360412278240147,0.2990778693992615,0.32211976550023136,0.35195883440203846,0.3118001709610239,0.3424937470812521,0.3157333069724471,0.3451333987251115,0.3127989625894385,0.319083096627629,0.3252068267533293,0.321211628499153,0.3321949312280453,0.3249641740822227,0.34253711940390036,0.3171877720497488,0.3067966787374977,0.32305650293711835,0.31879718547768054,0.29970829741184213,0.32828031520314516,0.3370546257593799,0.3295242458977931,0.32575332388242023,0.31897115495418393,0.33433677171097803,0.3351144317169209,0.332063681512144,0.3153799688490152,0.3207304112555696,0.3106564303083959,0.33040480623472457,0.3355867150068247,0.31447262864950687,0.3399746996092337,0.31283544842303934,0.3097659124752151,0.3372053136724991
7,0.337864384947063,0.3284257146375863,0.2981281030372504,0.3059366350811447,0.3237640155929573,0.3075549859626562,0.3266098691033885,0.3276231031584495,0.3111105298052271,0.3565801718855377,0.31901042033891736,0.324005213997719,0.32525708905167944,0.3300430697657092,0.35479523701701215,0.30007184575397794,0.3093770754896965,0.323824826384865,0.3164942154496929,0.33110379624099234,0.32383886846733845,0.3023594293495119,0.3331159157281097,0.3317886527715003,0.3307756712729081,0.34704172144710915,0.3317154764283331,0.3422705273063332,0.33039308386561334,0.310724014939196,0.321057656614625,0.33156185089658297,0.31043617159825,0.32275542764825305,0.3152831171454765,0.3203347499018433,0.34416399847964807,0.3347496308055334,0.336255198547378,0.3281423527156482,0.31719762686975506,0.3015431609716927,0.34658112885591374,0.29895808365425747,0.311791549016372,0.3158769934760276,0.32590015299044794,0.32803293703625835,0.32450939251324223,0.34268185357902325,0.32094878050827336,0.3507823719734594,0.3369965451316046,0.320106824955237,0.3353537906980886,0.32174599681357846,0.32701010119581125,0.35167837197766233,0.33122765323936443,0.3267167470314259,0.34382099701357915,0.3019216608212509,0.32271561208092003,0.3127485362543246,0.3249697175021668,0.3247517061083241,0.31541647227040903,0.34156036008208973,0.3388744168572745,0.3205436959709868,0.31953450894538327,0.3176544238232371,0.347722863253106,0.3569307686397504,0.3169892190502474,0.3333845602047919,0.35434619932670597,0.32590055483228453,0.3246869236287036,0.30604264051558316,0.3266751411354652,0.33972770738464125,0.33634121133321343,0.3100386542030592,0.30380098797857336,0.3300303801895784,0.3174067759041825,0.3352763559096507,0.31372967256931156,0.3269622726626208,0.3149251240792594,0.33015297163011115,0.32819438885430985,0.3104169560619815,0.3133136899870266,0.3167551045242511,0.315622022102863,0.3336013773680327,0.31738077655264574,0.31366174064678354
8,0.3584475706431207,0.3338297613345656,0.3282541382459927,0.2989502110396122,0.3172903564011369,0.3092781274153088,0.3208208338998102,0.3202698860551014,0.3260564875873732,0.327561591386474,0.3189332452289721,0.3155121896805709,0.2973014704533518,0.31427895286162544,0.32441956056578125,0.3160710867547772,0.32848430520665106,0.31624015164527686,0.3408974960161193,0.3177528105719226,0.3057266658941959,0.3452668167676946,0.32458015376594646,0.3456485875178558,0.33840460326813293,0.33358432902027985,0.3228104819358296,0.322121451406907,0.3044685670128694,0.32327577286348985,0.3030347759955873,0.32546121857659494,0.3257736018379448,0.33378385455771536,0.3242110671580101,0.3327798534242657,0.32363690054315686,0.34876956741952303,0.3308373560038579,0.3164351143579474,0.3142798403397348,0.3147108030832836,0.34559366355692916,0.3236183415942607,0.32496166875754934,0.31938570781153736,0.3441783793947828,0.3358270339355932,0.32031388825344437,0.3261334823332804,0.3131523914912675,0.32102803217273695,0.31093415608253727,0.32019776612860973,0.3336754767916887,0.34089136980533835,0.32107251427533307,0.33696684670798616,0.3270264836637632,0.32322448460687114,0.335862294758384,0.3177498703672307,0.31349996763755994,0.321006865587835,0.3399007290535866,0.33643816579883096,0.30822220940413336,0.3369083300667156,0.34608234531860804,0.3658679646875792,0.3151323132198117,0.31368901405995325,0.32226967107359294,0.34632992819955677,0.3195880233539855,0.33062092753781835,0.34132431469158386,0.32091282831012613,0.33214420793210825,0.3299132809043232,0.32106820433016836,0.3140744056412651,0.31614355285280316,0.3270352515680607,0.3180011833842079,0.3151209655511152,0.32258048830764313,0.344555307116934,0.31632894409362494,0.33322184862561355,0.31198229342761447,0.3281065573350254,0.32335914922666575,0.3200038752596135,0.32355887108034204,0.3494946652723377,0.3589664454970159,0.3029965602411079,0.34137087803879257,0.3110894435541107
9,0.33105944698375134,0.32506947220847493,0.32735323821140605,0.32940055248909994,0.3153034439495495,0.33701939073321535,0.32400868287473117,0.33959028468541946,0.318160603066867,0.34432447307521524,0.3349694298131918,0.3020595471205676,0.3144866329348058,0.3179690474823925,0.3240554685933891,0.3000477004991727,0.31739687362940544,0.3285030652909732,0.32391045343442665,0.30435978848502165,0.32473577357604994,0.3141383902525014,0.34256199314420693,0.3308479656865487,0.3398841839543535,0.34035731188797275,0.338350746428521,0.34520986599433934,0.3134667307318207,0.32693525485022434,0.31429471497706846,0.32935622750117466,0.3021667717252624,0.3300712532113702,0.33173787941122973,0.3192590499688096,0.3073726289823559,0.33770975743266385,0.327246403339975,0.3158035835739527,0.3165848485614147,0.3162543126100975,0.3399290071069349,0.3081627056689061,0.3256019574634486,0.3157716887195453,0.3207038958288905,0.32342950017382865,0.31712789555631793,0.33715865296496195,0.3256102767484471,0.3355482330105126,0.3139538662393844,0.32116150734712323,0.3275846656537421,0.31853301537605117,0.3222055622504084,0.32683260553700266,0.3201462978711168,0.3275732210247267,0.34546748441664643,0.31634307280607754,0.31641468340882467,0.3421444261268952,0.33498667172194996,0.3193618058036865,0.29629397786577766,0.31979544535023346,0.3188843967046474,0.3516050151305547,0.31282291848963995,0.33082668574844765,0.33803122879056635,0.31527641528708344,0.31959570374300617,0.3214421105006099,0.3416302779009098,0.3144431584867703,0.33278852555373173,0.3152799486112253,0.32144730313989134,0.31771146049091864,0.33720537811200213,0.3399819749409404,0.3032081594212468,0.324099873281187,0.31679391565145754,0.32765064964843915,0.3225705652799681,0.3126209752700021,0.3068136037686219,0.3330160177802556,0.30769908876287844,0.32947630214060053,0.3150593583702274,0.30146772019344376,0.3267252018323971,0.3200690139991228,0.3249376715513303,0.32980202343361376
10,0.33385081626716817,0.3126575029569951,0.3409803781152818,0.30092717776909633,0.32643014882373134,0.33151738788961665,0.32266524835042626,0.3505229965616262,0.3464513528986366,0.3687267144361071,0.3145902491122702,0.3127134696133171,0.327293382618856,0.2943527828394164,0.31922850038278006,0.2933084084723356,0.31128809203203794,0.3293670572207771,0.33528951854295996,0.31137348267693465,0.32607983704706894,0.31728143782184054,0.34425193391419795,0.32639787383390095,0.33020411127315646,0.32467212789495864,0.3326344473445659,0.346278472885749,0.32518356096263323,0.34449805275127704,0.324120483729801,0.30572860533504065,0.31161473865842,0.3292146096691139,0.32093772874123777,0.3250528703677421,0.3432221077820877,0.3224904381627729,0.3162052238647809,0.32688674013230307,0.3332197069830226,0.3227252613956658,0.33074516558097594,0.2983059051861483,0.32450964886721406,0.3356438405669306,0.3305294621423498,0.3352425265867028,0.33390389332910253,0.3329837859892409,0.31745033272342515,0.3279491480092871,0.31305764884224174,0.3230735329049201,0.31077094967470115,0.30675319098754183,0.3362003325953341,0.3320674762912198,0.32474436414648367,0.32853888622704186,0.32352475608494796,0.3480885426185797,0.31611207874576025,0.32585862802455057,0.34616748929654556,0.3157682328854535,0.3245270179501945,0.3089150643664701,0.333131181785335,0.34068199894316303,0.3163329481160287,0.3248614294060753,0.326998208164676,0.3402395290426299,0.3333697658872201,0.327660669180015,0.35499570234827693,0.33548652578814564,0.32322966169905526,0.3249989349796641,0.3187845651824103,0.3197131057515201,0.3308685579067474,0.30720872452854786,0.31182535953359863,0.3094015007069587,0.32302476641534306,0.312048535763165,0.32586863204337113,0.32169466527480883,0.32252853867458253,0.33714667352360994,0.29236934734032677,0.3226650560656862,0.3221564423569278,0.3319536337396154,0.32853560007801347,0.32939252577264616,0.3134792628022728,0.31930187484821787
11,0.33499909650857823,0.33247135291190927,0.33859499305692864,0.3167664641076435,0.31323080712059487,0.305706375181528,0.32957791676896364,0.3322086850723538,0.3134605847833597,0.3205074078278611,0.3090486415435282,0.31853647153393555,0.32893405700696876,0.2927437213919316,0.34114057299886946,0.27117836454831895,0.32060843261411287,0.3043827833661926,0.3384313177723139,0.31469636716280047,0.32854034750067634,0.3249688217091309,0.3347851180061564,0.3204976374504706,0.3299858143760104,0.324768468234685,0.33160013246680475,0.38510472813322877,0.32247311152160546,0.31346756296747763,0.329602245548732,0.3524720953065065,0.33064674234365304,0.3336993854573786,0.32701229599895454,0.3250990920570191,0.323412330221168,0.32494855129166583,0.325610410924334,0.3400526169085598,0.31748086863774205,0.3057067239139402,0.35030838980845586,0.30464583210681423,0.3252803285792744,0.35974277346080646,0.3342072014616516,0.33057955818867735,0.33473289742412116,0.3433090320983202,0.3287161388418213,0.33629592205991227,0.3286963298310313,0.3102793084917261,0.329415679125431,0.32588257630149686,0.3215052939260805,0.3272093992920581,0.30739115266306316,0.3107236239911969,0.3421285679005422,0.3118993807954197,0.3347719938099478,0.3199863297965808,0.33908986475792113,0.33109524492009956,0.31330831374323675,0.3535697666402442,0.3289388120372619,0.324087137648209,0.3128352836135212,0.32331131999452034,0.3383735545198157,0.34822144618079337,0.3163808067272918,0.33834900241647475,0.35099047547183143,0.3259946654005916,0.3282097549039654,0.3367603088714707,0.313620418617618,0.31121039445227444,0.3397428452959189,0.32335315426509165,0.3322396377768652,0.32721548082686297,0.328220153079858,0.3296998949496059,0.35104080188685866,0.32984407741338534,0.31925660172494974,0.3354917479983238,0.3022340989237246,0.32026389691107,0.29929556674301383,0.32819415923987083,0.33521220017437814,0.334227036847681,0.3025658710898892,0.3173495815712057
12,0.327753455334453,0.3276413580926568,0.32555555301777844,0.3104046164668783,0.3352301992690453,0.3317354904919012,0.32741919932693503,0.32508586284942653,0.311745047473199,0.3255226233742238,0.3055873457126814,0.33279610317311625,0.32213096727526674,0.3002205498244725,0.3274642065594495,0.29804749605081315,0.3426796866202627,0.3279030774742803,0.3199857634666857,0.32150541700802904,0.3135604944631422,0.3163118200432159,0.31298454399792525,0.3230544337139448,0.3339704993630761,0.31580651510212665,0.3248901059480196,0.34693088847920617,0.3208304253676232,0.3206894384792351,0.34208953193914243,0.343865150059137,0.30540530514750736,0.3355606442382951,0.3270343106646004,0.3260602575572825,0.31207364581318325,0.3227783826451983,0.31728480503076734,0.3271758719634836,0.3262472118881899,0.31262194929049214,0.32882152010319843,0.3038161990399072,0.31903985800845946,0.36251420680683666,0.33340421249552027,0.3156158003908203,0.32582177177055904,0.3419546828440081,0.31802403056781875,0.3313283768083442,0.3114608914375684,0.3294277368589903,0.32299310066468256,0.34270252830332215,0.32356297031925957,0.3130063294712415,0.306689720956597,0.3136927803161,0.3350213869011262,0.32496180615420983,0.3046693776939432,0.3251598295706081,0.3357635641486264,0.32050384873593385,0.3186772562868542,0.31939031481376834,0.3174356206259068,0.34515203701240477,0.3109278228914543,0.3207220661392069,0.34628636655988665,0.32989644021933995,0.30282468556227576,0.3241361144954241,0.3320475046237245,0.3089305584412506,0.32242328372922663,0.32062430385984103,0.3156699183347971,0.3177633508928198,0.3613479019819193,0.33550483919609525,0.3162823440144341,0.31997800997723197,0.31954202913014323,0.3251720132752839,0.32415698188887815,0.33918102551043966,0.31535278190388805,0.31612806230119606,0.31850322937028014,0.3169525328826507,0.32197341628854204,0.3308269950929422,0.34363747360261054,0.32310525503561843,0.30669770943428026,0.33672719051937067
13,0.35620010793363494,0.3201666499076672,0.3504134242553265,0.29437409543112064,0.3226992699783194,0.32434307101793447,0.3320937286374857,0.3206537555488304,0.31894086106623076,0.32238542675606213,0.31629325180336076,0.33179699290443027,0.316540824587168,0.310768356015819,0.3383886685553939,0.30001501579486145,0.3228351480126061,0.3214200513038588,0.32444861823176624,0.3242037344889922,0.3123921464235947,0.32077775528670777,0.3440530074620719,0.31719813573592864,0.3255522563110654,0.3129133487291637,0.31209154666918026,0.3391013565070329,0.30871969554578155,0.3447342936239068,0.3186527032597314,0.353107680302918,0.3149781403531738,0.3377442269913762,0.31079941439728265,0.3315035970678762,0.3210109495185604,0.3158083979378151,0.3246654083881718,0.332485899124953,0.32508397340612444,0.3183288086822259,0.3245702036181341,0.3331789972353155,0.3283206988401154,0.34445771196920355,0.33126832355192204,0.3194061341242974,0.31460989519838983,0.3465147006401524,0.3123434232083343,0.3334390273499017,0.318126580447223,0.325967056051203,0.3276680629228905,0.32142560869612713,0.3173694695787327,0.32935659858863114,0.3057907322786445,0.3086854547563792,0.32661407222605454,0.32902481949258483,0.313036175225664,0.32367832342836966,0.41186407847367007,0.32277697919680925,0.29588207543114864,0.3656345233519372,0.32327866195212596,0.35183910624007464,0.3174213528334802,0.32216201278339296,0.3226798713426141,0.3282572492493022,0.3164937204195186,0.3492161896360823,0.3349983715684633,0.3211037016445432,0.323589319895786,0.3413257911038698,0.31336868292627396,0.313960285070883,0.34689479819319763,0.32783170902199477,0.32100281012936266,0.3453388937356368,0.3285103139823263,0.31800115722753447,0.3206183263454687,0.34210958096599736,0.29371687464297136,0.319379945446313,0.3180515344066913,0.30549613009483656,0.3047257013026876,0.3534374426707334,0.33615214943990734,0.3271025386700575,0.31748161525497703,0.31687789158956864
14,0.32869911434386073,0.3180243123898915,0.33271024616477046,0.30301351891256356,0.3214240306080181,0.31289672266921004,0.32931421655923837,0.3121564394667126,0.32854999722037925,0.33401595296025266,0.3077741204916516,0.33829551900783256,0.31649195695479804,0.31730067199192186,0.3305072118972054,0.296446119029057,0.3512073190117277,0.3377202305121614,0.32911741591165017,0.3328874503186835,0.33660448768254153,0.3093509121292076,0.33923121874688056,0.32421666865760057,0.31767972168970116,0.32448559561335827,0.31912981482827874,0.3393791465748613,0.30340840502489685,0.32570995531041397,0.3214975576891017,0.35340229483947116,0.31388773448811846,0.3326433731155417,0.3154002016335993,0.3339681864556952,0.3248573780136427,0.32446897734323765,0.3126328484402597,0.31448354278438034,0.31384598192342095,0.3124827575939365,0.32544357024479825,0.3285977472967524,0.31088430066745965,0.3465303275264241,0.3300225008466522,0.3099703012779455,0.31505861616204384,0.3435004692811727,0.3112991258250699,0.3231241832692071,0.3091618651758189,0.3219376162310406,0.32306339155104513,0.31546757322245333,0.32461880064987153,0.3278087848623224,0.3075912341345983,0.30917232116845483,0.33390879820902,0.3290656343831405,0.32966527503238885,0.3280390096139315,0.34517213360498256,0.32197001092261485,0.3124629199624775,0.3414372177861714,0.32327299864046666,0.32930334599538114,0.32721775647925605,0.31683604314694047,0.3245677104963077,0.34625394325907394,0.31153442351929267,0.3538137074600834,0.3436345903212453,0.32741941168686783,0.3172519733895578,0.3368764612138551,0.3134914523103034,0.3246933217326118,0.3346392463464587,0.32245059854774594,0.3176176326843682,0.34558362948462407,0.3203803455318686,0.3126638367800669,0.33294656411056545,0.33557430916815406,0.3135610126730046,0.3236207925260875,0.3206007530198346,0.3043881161709689,0.2913358953978188,0.33000992599559387,0.34085114038575104,0.3208641505980648,0.3221539235385432,0.34161651566820433
15,0.3365956983623669,0.32679936842196633,0.3486331640642341,0.3252380787231673,0.3315202378918757,0.32284436691911933,0.3209404797448268,0.32446085193573093,0.3229344955091219,0.32545958899773353,0.3046287187625826,0.3110753533875295,0.3188409538319779,0.318891481905828,0.3311811607340281,0.29343238649753856,0.31958455045966655,0.3328158613336009,0.33104933428239913,0.342709870520903,0.32795971827091325,0.31814814878764885,0.32324176952356726,0.3248586248028662,0.344790751003328,0.31858228868956967,0.3236705164624157,0.3383204301810782,0.31247483814107724,0.33170181612423083,0.3252365362695079,0.35742140067860606,0.3106252847147254,0.342873999418276,0.3154919518445783,0.34622493945077215,0.33353135311145976,0.3165595043822741,0.32050325555781367,0.31335439630524053,0.3234818459768734,0.3088861307962972,0.33327833420952635,0.31486779665179854,0.31997050031019686,0.3588422911862188,0.34928365832158514,0.3231602754358298,0.3148413219433931,0.33943227181347563,0.32017752702325064,0.33235660505196707,0.31213342454067217,0.31522117395098326,0.31783422922588767,0.34799943488376,0.3204092017959753,0.34683395434111286,0.31201408386782875,0.3035962777077127,0.3450731009518916,0.33350897993933154,0.331884481462079,0.3190283842649925,0.3520876724420308,0.31562317225284964,0.30970145935233406,0.3275553964985438,0.3339107647307819,0.34589661981789444,0.3149973359594965,0.3247484322005022,0.3271371003857871,0.3316416967908058,0.31267495283513913,0.3329779168705401,0.346202679362852,0.3220097393725465,0.32704281634076854,0.3458835076554481,0.31513389043149004,0.3281302355339676,0.3388259603508772,0.3344520819139122,0.32596949053382585,0.3216339336386878,0.314760379487978,0.31642019528709453,0.3415494765837605,0.33895589839642887,0.29603706450079237,0.3328560957308333,0.3239300921162323,0.3132588756799589,0.3182154862086036,0.3493767231319451,0.31140744011220545,0.3229886966322418,0.306826044694953,0.31892345937979055
16,0.3330835817085754,0.32314111462180406,0.33691194102622773,0.3149452161370735,0.32431176077352364,0.3132177637645045,0.32991811286830053,0.3228505821484859,0.3315300991014035,0.3296690385388251,0.3326222802362202,0.342549130541797,0.3163902668322451,0.3212283665587919,0.33303358040670394,0.2924457290508456,0.3342967330663529,0.3296694733570461,0.32727670988769486,0.37178916066932655,0.3394164061409281,0.32917532899893803,0.32882462617088826,0.3203664401088021,0.32409600322022813,0.3285149730134941,0.31789448865362546,0.3373766706383612,0.30504798554721063,0.3314170065246854,0.33351957665138776,0.3339960472513435,0.3110179393557158,0.3433697086382467,0.32146566951270505,0.32826704346901414,0.31775535081436707,0.3100382158718634,0.322602736279292,0.32059494466461425,0.3163022098815461,0.3121331643565861,0.3544655556837909,0.314587153296615,0.3069346686804636,0.3453480004457651,0.3370142861607942,0.31249052150599826,0.308911307422465,0.33928274302349576,0.3086767462388688,0.3361457360443122,0.31804180925646774,0.32263660518601617,0.33572218115429475,0.3387204050133469,0.3142927892812021,0.33618654429133416,0.31245470311173057,0.30847523735834803,0.33304360530692045,0.3289301509865308,0.3242409216853811,0.32252230103918034,0.37398907818452565,0.31544174013252024,0.3185741506834504,0.3556800940832241,0.34062127849599355,0.3377658884294388,0.34142753913260837,0.32562262934837855,0.3301072066297369,0.3421984599931279,0.3186879693996624,0.3354353843736798,0.3499840242520437,0.3193194575602562,0.329882242758621,0.33845787162032315,0.3124048104286945,0.32696336858160424,0.33597272194870215,0.32034740385511107,0.33386711913159606,0.3285194161701689,0.3133321002150006,0.3090288598606298,0.32721113341982044,0.34184536791055253,0.312789588133779,0.32610679546626387,0.3186533893603002,0.30133871241677956,0.30780550455046474,0.3426288168162583,0.3326542225161008,0.3236512227888697,0.3173813587619422,0.33815675993620237
17,0.32930685979078367,0.3254893301519696,0.353870515780337,0.3133319823019783,0.3341680175252945,0.3139871566836014,0.33091030268957866,0.31818996616855466,0.32629832614994647,0.34212758434074175,0.32396530091691006,0.3354893887839157,0.31723143334526693,0.327660899776767,0.32988494156437165,0.2970631278878509,0.3354701275434502,0.34480743417793946,0.3288418705179202,0.35368569711318476,0.3345476208493807,0.32129296327101364,0.3143828760407744,0.3118226492815894,0.33679291126208344,0.3370240557331859,0.3141876976440951,0.33982324562210564,0.3080735641990765,0.34544138903585975,0.32137052083411677,0.335386220305413,0.30600560080286693,0.3275257682012392,0.33221125346531166,0.3272757037744517,0.3188534718143551,0.30562836076350963,0.3158133983567447,0.3245319395567464,0.3242381066817083,0.3120329722206983,0.335340817465503,0.3007654687666049,0.30715857210728564,0.3478271256104274,0.3395649979333016,0.31977347131490286,0.30859025439465954,0.34303720710315266,0.3068389608667107,0.32981950977772423,0.31418044876586415,0.31431794423324005,0.336432257017862,0.3318072733750801,0.3131247069650363,0.3300561630458429,0.31333318180672043,0.31396308570107706,0.3423975999342508,0.3266083313701228,0.33087123474448765,0.3264827860075576,0.35431587288286576,0.3226131744149045,0.30401620913217464,0.3496716358302775,0.3352647359765663,0.34796663031627245,0.3279207372510284,0.3348023937984259,0.3226620107739039,0.34140170883567217,0.3106158292917195,0.34533919594386064,0.36047763404973293,0.3128117917243228,0.3298486588019328,0.34094440347522903,0.312266540641135,0.318974236968852,0.32616961912368786,0.33064727756316314,0.3291719594846835,0.32359074251737957,0.32330636398362,0.30627864032139873,0.32991140955966736,0.3337852285113406,0.30392737003807324,0.32272988835110417,0.30933739390450793,0.3040233408588458,0.30409571056942547,0.3434272882446207,0.3228466209954842,0.3139309229839923,0.3212246455004045,0.3374452827605851
18,0.32714458484058107,0.3263406550991296,0.34257064215657346,0.3061035241623333,0.33539031946213893,0.3184051314133491,0.3252093143455877,0.31423224052354815,0.33025179166500446,0.3383447149248928,0.3185730132874923,0.33928857098588605,0.317703316301028,0.3184448728102196,0.34211148812957604,0.3022460080869578,0.33436623731687576,0.3336296206315192,0.3303270992732336,0.35131672163467637,0.33233169779023997,0.31795203156004004,0.33398780831351316,0.3164319789373108,0.3249434345001597,0.3220001723223553,0.3107778560765079,0.3533408886366447,0.3094347280809232,0.3392636015244088,0.3279093883736877,0.3335087122653148,0.2969940061219919,0.33357792612392173,0.33277146547456427,0.3325093798886778,0.3424900976486976,0.3063811339654783,0.31185250695814776,0.3252710206165269,0.3275248107870923,0.31187309554650366,0.34033902636966845,0.30660283272420197,0.31918587401801746,0.34066522056928394,0.3488549602248682,0.32072993322004906,0.3089218109268743,0.34807765651814254,0.3189026977650984,0.31766911336531967,0.3122202383982578,0.3221990636546711,0.3295848319915248,0.34282120751210937,0.31526073159753354,0.34293955370094287,0.31069538449303397,0.30342493865049514,0.34152705216340284,0.3316497234537274,0.325826437421437,0.33671907329799106,0.35584481016767,0.31997335158696805,0.31217610748525115,0.3489191949371955,0.3397791484283676,0.36142954239319847,0.3379394466457076,0.3261301763064028,0.3153754576172662,0.3591532985919583,0.31458049806485133,0.3375999320079054,0.3574925774735724,0.31320136472956306,0.32430040550972083,0.34098549877865714,0.3106207522714831,0.3244735184236037,0.33340971641694084,0.3227010516935891,0.34275540159677576,0.3294628541173422,0.32309788854206734,0.30554206847710996,0.32101315612876685,0.33341058669994067,0.30950613682251593,0.3274667897335977,0.3082864613566007,0.3053122047183816,0.3077168168309409,0.346085386907647,0.3369646414666448,0.30934314794476137,0.3282313494375589,0.32674819077141815
19,0.32828796291322715,0.3312587606507813,0.3398975606786371,0.31298936901158836,0.335762743873094,0.31986294421445327,0.3281642619096703,0.31591400131986586,0.3289362175313238,0.3381121071399974,0.330123676685438,0.3326102538006058,0.31750078484957395,0.3126870273056367,0.3332706045208228,0.30047436873095285,0.3318256398101469,0.3357832254814187,0.3355572293658363,0.345435091105458,0.33460684823379905,0.31932411776555264,0.3174040773133907,0.3187885167709942,0.32421030688489827,0.32557487894300785,0.3192014435246382,0.345158735587991,0.30473042076214285,0.34859652538977975,0.33075961665453085,0.32770695503218616,0.29218590750726925,0.3344451297543546,0.33540523473941464,0.3279629198003167,0.33577278169123764,0.3019105486448189,0.32074306374599176,0.3250404874411057,0.32977724537044695,0.31213707462523765,0.34371497751814456,0.30029541530924714,0.3087832679804315,0.34765456516650833,0.34560280204167165,0.3212580994843385,0.3060807470080105,0.34515478856237963,0.31651218563892763,0.3288072785278311,0.30978289180165947,0.3266094302383514,0.3288046764401992,0.33534192770100735,0.3219403790726826,0.3348870736446341,0.3123210762751941,0.31298924051608884,0.34192129245618175,0.33594948616368764,0.32296256779142013,0.33911126175279926,0.35695463716791753,0.3153304526095,0.3126054291082144,0.3565125133970896,0.3378921999591146,0.3575351756792267,0.32954520793301195,0.32212710365979397,0.3258649702017572,0.3574455676705991,0.3097712281363557,0.34483126254992713,0.3584980836950203,0.3138315356013678,0.326855221719679,0.34104987711033485,0.31002309924180177,0.3280023163944782,0.3317865770545173,0.3208934512354614,0.3403321620584669,0.32070633186335984,0.3277368216215808,0.3112667643647162,0.3264464662341574,0.332751704436549,0.3144559920320026,0.32508187653761017,0.3124247280021517,0.31167670624394483,0.3149945752332098,0.34755238541941724,0.32661883823209703,0.3040913216527779,0.32554067940990605,0.3331928134692204
20,0.33190605752642227,0.3284700765343397,0.3407408651011095,0.31889147546657864,0.3373868640311253,0.3154930213007444,0.323928289731399,0.3195698831012788,0.33040225678519497,0.3383837071223665,0.3342309617915128,0.33397056861113655,0.3127571834755961,0.32066825197070126,0.3231791904540981,0.2940593162067264,0.342514174425268,0.3401709905678005,0.33421142888597555,0.3308572356617698,0.34349260792011294,0.32297445329384616,0.3168503073219586,0.31747360630814714,0.3198720895940307,0.3229364094755657,0.3218421107221569,0.3383498850312726,0.31076068213974156,0.33752994571453326,0.33639176980100205,0.3241796358356198,0.30365562513965455,0.33134098138673573,0.3325485268578224,0.32674432039413503,0.34147573089509226,0.31345132586110347,0.31900528449205595,0.32152948709616724,0.32618009091341316,0.30534539419282164,0.34484338576953727,0.3057717132199191,0.3103136577520199,0.35557799973752424,0.3381479066102019,0.3196511197465549,0.30444354929438733,0.3391080754650909,0.30473177143413926,0.3343167763852271,0.3057387573085285,0.32117051993569834,0.33320409133062556,0.33584453101637035,0.3139377720628888,0.33140458727330535,0.3120677196009402,0.3101801371532887,0.3362633374695353,0.3361897503650825,0.3182095350916107,0.3429632853111996,0.35394593336652636,0.32179256601865547,0.3000773489676039,0.34409073361717935,0.33584491349529083,0.34543587781692486,0.32773425859568306,0.3232657032188345,0.32850537055397433,0.3555861583595529,0.3088798684305079,0.3500559708339399,0.3752446038677107,0.31786622305573276,0.32256313334735026,0.33959311474027976,0.31104146204693184,0.33958464204374744,0.3330884898094822,0.3156047462175761,0.3498378983902822,0.3168973805991302,0.32788368511823307,0.31484155252140517,0.3252469800672201,0.3292537159721956,0.30859141664624257,0.32305672676277136,0.3081911753728047,0.315293298531348,0.3138165042107736,0.3518091009241434,0.316591023258437,0.3083245804535686,0.3242622854587377,0.32344141483138744
21,0.3317033184448817,0.3270839953892132,0.33610549207952284,0.3140961618229742,0.3381939412690141,0.32207341644864773,0.3294688062394253,0.31926391671881704,0.3304958481614527,0.3478669344531696,0.3231226059210713,0.34776051848265516,0.3182056354743711,0.3143246498859719,0.32502099815951174,0.301398744790169,0.33242594999537384,0.3343829028458135,0.3393859912281501,0.32201254791986417,0.34714870511162793,0.3222009510280086,0.31308088379915067,0.3147887759649449,0.3161640122096356,0.3202768732191247,0.3198268837235255,0.3340476943959075,0.31364851863428894,0.3316431135253155,0.3411236864085418,0.3235313551064988,0.3058632642535718,0.32169239626073376,0.33342318289047007,0.32030019202202537,0.33021285395957134,0.31743345714066895,0.3193407857086803,0.32859860129905727,0.32170060152854085,0.31296485756593195,0.34400542670105655,0.3022155210607843,0.31421811293903384,0.37011858694257266,0.33489722287603796,0.31622318294534657,0.3075014203221843,0.33502302023907443,0.3010013457958744,0.3249304438805849,0.31061563102357437,0.31671283548769213,0.34068615666090096,0.33682825124217264,0.31058462415457233,0.33615359467410355,0.3116196395446597,0.3051511566469395,0.32855948401347407,0.33244978792332974,0.32918780896748623,0.334902307184538,0.3569858280094689,0.31813114018729316,0.3125713217626094,0.33991017804385193,0.3309786618114632,0.3403184053008071,0.3221266096683757,0.32461953232149054,0.32345871525790715,0.35339250131831645,0.3085782223560821,0.34481825395147925,0.3724362453633482,0.3220750885081985,0.32444971962817093,0.3420618628295156,0.31443889301113376,0.34189770237083,0.339291663557716,0.32632803356189843,0.3453933988660508,0.3211383780239221,0.32799138682293016,0.31315736714758435,0.3236924198947137,0.3320583161237166,0.3127513141640477,0.32252796035468656,0.30788521033662175,0.32030883810914823,0.31466031182347487,0.35393484787272234,0.32040673388509894,0.31396399349857473,0.3227219474374003,0.3337705388188564
22,0.33842340859504016,0.32721561830576357,0.33785432667470194,0.3146381786294831,0.33569253243334873,0.31939399230759313,0.3275272133059459,0.315997081712135,0.3298427889891108,0.3409262944391987,0.3198380311280514,0.3450573236946622,0.3250101662044665,0.31464171676994807,0.322151562997088,0.30015782775990757,0.33501840378211334,0.33311120116529763,0.33263324538282163,0.3314821257723165,0.3432593609157263,0.32077543978585593,0.31340221259300843,0.3132595796914254,0.31317671425771765,0.3222362218419891,0.3111739798352149,0.33325547110955844,0.31021780593676296,0.3332044472628347,0.3408987761834294,0.32878588291020805,0.3095638794783503,0.3177130321332656,0.3266980810778214,0.31500059784123,0.33775014750610743,0.3090561468733736,0.3259674507196661,0.32610805874995114,0.32536915304039127,0.31686265156884463,0.3380184526584821,0.30634680491619504,0.32633337365392934,0.3696083436450338,0.33738795076345685,0.31558693144074623,0.3089014170772113,0.33281790177748066,0.3164485427486926,0.3353878966054006,0.3050595291589485,0.3220028095904402,0.3335984392398684,0.3352580697899701,0.3159412549564585,0.34050144793926984,0.31208424511731614,0.3043889145192733,0.33303629856970296,0.3355731775329443,0.318376613095172,0.3294737152470811,0.3419418375031425,0.3110536460578466,0.317294530484736,0.33074411954290683,0.3300269086091042,0.3357994776961281,0.32020951952089316,0.3230070286154326,0.3279440106987666,0.35465435637534404,0.3087137955834415,0.3453209000403631,0.36338026722504146,0.31826168523275183,0.32432718334739613,0.34447187589923683,0.3209839708125318,0.3345577738300732,0.3423116732244213,0.32839557960189497,0.34305808007232474,0.3175365360378151,0.330374107513207,0.3112315701384849,0.3274549976471746,0.3320795338936937,0.3081990151057663,0.3229714797753239,0.2984969701010399,0.3227841602400116,0.308635724861991,0.3557161071885064,0.3179861085368842,0.3220619145718501,0.3179779379181612,0.33552482022801083
23,0.33091774282372816,0.32364885589382286,0.3337887163390419,0.313885694233602,0.33377641421332227,0.31719397439806984,0.3255138204786654,0.31882850264553114,0.32238305804988693,0.3435606385988325,0.32418117052252093,0.33944600551479526,0.3252168768849036,0.31279984068217626,0.3267088329800701,0.31097894398659437,0.3387965622222932,0.33326317229147345,0.3342691472191311,0.33341072939219407,0.34455380723983403,0.32041754366439745,0.3168224179776217,0.30740633648181837,0.31261483384002586,0.3339917418034571,0.3068848079282801,0.33404219405167845,0.31077830786510885,0.3323660058412562,0.33999722586055897,0.3318509028193028,0.2992205305651961,0.31308038186736564,0.33645643039954914,0.31565828684549524,0.34148588692285287,0.3168821805815464,0.3240729399640034,0.3306040112456304,0.32508940008361337,0.3177259778500993,0.3336243420675493,0.29904047778279946,0.32724367767719764,0.36945173375491086,0.3368619437291534,0.3161376225412659,0.3078395780068736,0.3276485938184415,0.3169394414451216,0.3265551334780302,0.30213815382779524,0.3213775997287643,0.3351053646863741,0.3252332300851693,0.31562307494865793,0.3377204469481645,0.31578734059652863,0.30488516098630536,0.3300212238596493,0.33680398105423137,0.3208730020106716,0.32939354558440725,0.3374438146619901,0.31171379396083526,0.32106953873917166,0.32779977511866676,0.32657883406609267,0.335695540447441,0.3110857713158385,0.32071916669959705,0.3322757211867468,0.3543053079815913,0.31314783550193076,0.3449529090600808,0.35835663238396626,0.30844936261156597,0.3255717944911189,0.34200391469805186,0.319667356364902,0.33298550468832133,0.33788177588358764,0.3241893933800466,0.33017413853485633,0.3128057404769501,0.3213113783091225,0.310416228561354,0.32543249656384565,0.3337403131011609,0.31251376444258155,0.3286808395376154,0.30125055190058336,0.31751174930090015,0.30474048910113544,0.34861134019890283,0.32367677722561994,0.3214458353621997,0.324328815286274,0.3363292006264291
24,0.33257309143752517,0.3164113977886992,0.3343692881164763,0.31750105611145657,0.3341004930334494,0.3205942545156923,0.3309098183011975,0.3225210559166033,0.328713547973034,0.3447829635359203,0.33061440892631894,0.33712924414372786,0.3273215777115007,0.3107620763531131,0.33373895676290755,0.33958782921333674,0.3454347174355946,0.33834848536858597,0.3320973923053455,0.33083468386733383,0.3463788970255295,0.32166985744486604,0.3124862330674297,0.31159489896780174,0.30756241057032163,0.3236945631128931,0.3067107536751531,0.33510725407688,0.3169317064572973,0.33579511718950195,0.3355134705909784,0.3200891482233977,0.3011291385801086,0.3144706041631725,0.34151435117335394,0.3080977620296891,0.33839975459368565,0.3203572361237799,0.32035467749337787,0.3266472025617485,0.3207687593260792,0.3206695023631713,0.3413300063573817,0.3061376583387902,0.3157045364374512,0.3664995185481659,0.3425642934404326,0.3229711333846442,0.3046350612578799,0.31939139655158294,0.31233143137554487,0.32121175115806916,0.3112751365125307,0.32005998663341273,0.3347662830313756,0.31171900241992917,0.31572053434184333,0.3286530165785001,0.3115813360704823,0.3102719214380877,0.33749975776511026,0.3387605216593116,0.317513032454618,0.3289403919576452,0.3390591864926228,0.30435099295018925,0.3202946823588266,0.33065812381100795,0.33090909487332165,0.3307963390995158,0.3090217928569236,0.3312093348334512,0.32335186399223365,0.3508405754961458,0.31283254437679,0.346961921375642,0.3517259876559611,0.3064448264365793,0.3289429273079224,0.3347790796610208,0.31875479258986056,0.3351332331638071,0.3290903968707823,0.32320985730457863,0.32831742349688675,0.3062615725145951,0.32044441564640674,0.30758680050626763,0.33152794918692374,0.33655247453434833,0.31819072952547045,0.32928986803937055,0.30294309055215013,0.32081824927321906,0.3135927146440224,0.34396519243046314,0.3290933806654604,0.3227947840746229,0.3286629623842704,0.33150343880849514
25,0.3336936326418887,0.32768749935113234,0.3326511043908542,0.32760979745190755,0.3372365004624103,0.3222030801907022,0.32749067150346944,0.31348044614160425,0.33261572112245724,0.34515120125977494,0.33773562691216746,0.3387189293599598,0.3242071197309183,0.31065848677033997,0.33625656872532,0.32185601745401404,0.3402472782744302,0.33547788199888445,0.33514841823390723,0.3307157184326037,0.35119776195664665,0.3244160443287431,0.3101602323566964,0.318117512662017,0.30245666575478414,0.3185937652306156,0.29909667257080386,0.33005899731875044,0.3164438126544819,0.3360202644502424,0.3268910365722191,0.3166043593016985,0.29654228625056134,0.317815873606637,0.3349542526064671,0.31179186206548903,0.33488944165616463,0.3197022598264021,0.31831101662958805,0.32116993958720497,0.32261167202510843,0.32183270515101714,0.3424839333901412,0.3094813678253788,0.3149316710479522,0.3736852049662428,0.3352343953316913,0.3299448789393634,0.3035612307286828,0.3199147596886033,0.308894153338718,0.31660645801346865,0.3063237292314465,0.31771637802515046,0.3390241821963539,0.3107572082297262,0.31545809602131153,0.3269542554414334,0.3113643046383583,0.3149965429532007,0.336753822935815,0.34689377300671087,0.3196198959368779,0.3325372781658102,0.3318506490130556,0.29924117466061884,0.32205275167534575,0.3191351102123692,0.3319873961398016,0.32653854266077736,0.31187055578758993,0.33151829070622646,0.3237575148126981,0.3478986160430396,0.31911921095093054,0.33912645331304,0.345509244883331,0.3147339596073492,0.3274932519175685,0.3307332736800421,0.3165937062595135,0.3318280477876743,0.3279426121156558,0.3241531920967088,0.32764887858556124,0.31056002139858924,0.3191002072131953,0.31517564370051465,0.3326787866640698,0.3368867854114345,0.3247262231825142,0.3368557628989292,0.2996001315378969,0.3268615153742741,0.3149294584994417,0.3444893366295042,0.3394740493273693,0.3232028211444717,0.3344368805919988,0.3321869699872503
26,0.3299102989440344,0.3281356190994289,0.33510686321424943,0.3259548600936596,0.32960216573886103,0.3199746005050055,0.32878591860796247,0.31310988298093767,0.3332129647954761,0.3447921517067232,0.33782681436399603,0.3326503027611132,0.32686528385585734,0.3211903853118997,0.3340902220933363,0.33804058826401917,0.3431531085368601,0.33690083594751435,0.3328025352148283,0.330246799321646,0.3453050543567993,0.3257548492500305,0.3094261089018754,0.3237549970724364,0.310874875672755,0.318837452681291,0.31032025535575514,0.32850394698736796,0.313389132049212,0.3452296358486977,0.32863714892096435,0.3078459620358176,0.30143448353283675,0.3180907852532846,0.34183117323934453,0.31151658325542486,0.32699056134334037,0.3146372115635333,0.3151142067636159,0.32672489880684347,0.32325237704939064,0.3217546922295749,0.3364794046832617,0.31539937049331546,0.32049136777308107,0.3735406504528332,0.330070368711045,0.32028181672011,0.30337225641141846,0.3250997965691193,0.31562873568400374,0.3204996725714457,0.316404899105992,0.3168041076856554,0.34056035516771355,0.3124933912525295,0.31321397979969906,0.3184769850854593,0.3041989669094705,0.3112448617622695,0.3374806463530076,0.34744990407822995,0.34189282724537917,0.3383324401991325,0.32962165273351796,0.30646082375037886,0.32730167030211404,0.3199253050977077,0.32408662201491256,0.32316382173997715,0.3133980226065797,0.3409419210400149,0.3287674082773032,0.3492460272498797,0.32076954551333337,0.32935956961526835,0.3487742976743634,0.31561082694910314,0.3318752112042377,0.3333835741431276,0.3102522202754341,0.330066646996664,0.3227086453684541,0.31516286860076664,0.3282584907958613,0.3082948066483402,0.3218468484925536,0.31014805351931285,0.3333091337597084,0.33803769935494915,0.3128517546951711,0.3340400503294817,0.2998598473686572,0.3289234647825917,0.30884023795804005,0.3505831646786613,0.3365439137111359,0.32291681528568594,0.338532370958712,0.3234053320268862
27,0.3383471670180342,0.32798764888092674,0.33841870176187233,0.3195337446181562,0.32524496198845976,0.3270667060888271,0.33572005805044614,0.31178145715473515,0.3377944265915991,0.34357822184438297,0.33827429393859154,0.33006019622390775,0.3206996830871982,0.3123093265493196,0.33270323980639516,0.32999827623240213,0.34422745388524534,0.3379800885568497,0.3275481840455365,0.33939465786361167,0.35041059097894045,0.3265686083346065,0.3119844669734061,0.3201730593383766,0.31821592002911975,0.31662410487251963,0.314191979024558,0.31302894525160674,0.321123192869584,0.3456268817046957,0.3230388229066366,0.3077234959915349,0.3038626411364467,0.32073076898684844,0.33625112071206403,0.30542090446416725,0.3353748982151412,0.31586719224107507,0.3201064743539334,0.32828325248624524,0.3236898512366468,0.3279898764883865,0.33601577189007,0.3184092528540855,0.31630629869022236,0.3723524128282221,0.3273628978668324,0.305869679454449,0.3049526840780639,0.3149831984481906,0.3141477909341061,0.3171263813078931,0.31797382602727203,0.31291873273435894,0.3451994164901554,0.3100610956432898,0.3148361545247115,0.3139910123975536,0.3001930099372943,0.31538483257802125,0.3346932984399552,0.3406467327074608,0.33758019048685617,0.3329101231949696,0.32838158715550697,0.31123548599057715,0.3257659706725381,0.31497412096186045,0.32035375435387536,0.32667585536821936,0.31447155295181745,0.3481316504857831,0.3275533039486892,0.35024160701945295,0.32088807766909755,0.3294255168291154,0.3274637028111723,0.3178399084143401,0.33162186032570384,0.33708257984988543,0.3115637078781107,0.3286824432553829,0.3198128000820753,0.31299541784689433,0.33049147466445,0.30567582552791794,0.31907139120363276,0.3101727743870815,0.3351122886245057,0.3383843869293709,0.32343859199285613,0.32879984996213174,0.2973764123612315,0.331675363435573,0.30910853236188063,0.35231345985540186,0.3400914106271936,0.3264806370712402,0.345377469380671,0.32324011794097685
28,0.33683962472799667,0.32808418102893105,0.3335263204260523,0.3196853632092553,0.32829513698268026,0.3213353363186289,0.3331696523625279,0.3097647855115814,0.33083249905846907,0.35313890606284903,0.3410204272388809,0.326000670449134,0.31080057480813733,0.3165651312081397,0.34586017764273935,0.339131277310306,0.34066839062080917,0.33359156961373954,0.32946893791411525,0.33847815953956034,0.359655249818207,0.3255949018065183,0.31318563008915384,0.3223128740927378,0.3201767992808412,0.3175217651810451,0.31703506949839955,0.3108328882038851,0.3199050409882723,0.3439549934764107,0.31686805662350354,0.3072946942052017,0.2952188775166728,0.3250490740604111,0.3361697053735528,0.2968018983244386,0.33136362034122674,0.3246247095416014,0.31409964277646785,0.32950295593500023,0.32525978426187546,0.337408611691148,0.3356290157297515,0.32537424969219153,0.3172815322097132,0.3732985690094036,0.3225394494778556,0.3086802686859342,0.31013377660173574,0.31488699374607493,0.32352654441295026,0.3134268592228579,0.31890858546939105,0.31004332828680925,0.3408222498768625,0.31108206613145284,0.3127527094327966,0.3095238205786029,0.3013396199658908,0.3126462234988166,0.32987163375089523,0.3361519300340948,0.33602984291944776,0.3348442470421601,0.3316097160247121,0.3248137884655534,0.32919606849622396,0.3082686503620354,0.31418618084767563,0.3248774008398079,0.31582442475668016,0.353718362044627,0.33325558697687685,0.35903125845017436,0.3220745336290309,0.33592323029997667,0.3319949903102303,0.31688979981433085,0.33008197153588653,0.33409516701039293,0.31453390200312853,0.3247141881918548,0.3167871172424572,0.3140658681615289,0.3211674242076642,0.3104246859754639,0.3191583989346216,0.30789018950769637,0.3335699324398033,0.3274800628315181,0.30879504438946453,0.32953170461044456,0.2932186842030529,0.3250048707109535,0.3144545018564188,0.3563774656568627,0.33508996054233314,0.32263480569048203,0.34735450531234874,0.3214745384668551
29,0.34481294343257474,0.32106776677952725,0.33195468386220267,0.32223257846810943,0.32103917867567344,0.32686036401152163,0.34182917184904155,0.31760888668191134,0.3222300574282659,0.35950882779522564,0.3347856553617168,0.32067992130031814,0.31412539481510904,0.3124246002934565,0.3476429511009336,0.33182699438308993,0.3303872800347424,0.3343664493336672,0.3282903215071325,0.3377842653859843,0.3512966710199635,0.32505183764432244,0.3143621110441101,0.3277209160001616,0.3166989079601863,0.31463606851594556,0.3144049586528002,0.3111795367236159,0.32152288132395257,0.34129974545998115,0.3138705767297357,0.3090480130129227,0.3035747963469943,0.3255645564642183,0.3359533206561932,0.2986197560205334,0.3359339139761806,0.3241030669025531,0.30940599452553486,0.335507126911927,0.33317243170979494,0.3313228295744145,0.32997480003553376,0.3276314580814059,0.3163722696664483,0.3795201266430431,0.32427599359096926,0.31940535796928626,0.304409824065403,0.3123291149522378,0.32678770022648906,0.3100888099564334,0.31986813868182706,0.3124613689685021,0.34260466647032056,0.3151413781356613,0.31406350032784347,0.31045642411912655,0.30104548142177573,0.31769473229520695,0.33257375416884793,0.332550309229135,0.34546685305258806,0.3370891951856989,0.329997402325822,0.32822773769372254,0.32592833338907495,0.30745325610643415,0.31468967092112904,0.3210726220108776,0.31039073246474796,0.3505810461331668,0.3283150549113719,0.3633036876382115,0.31570654164396406,0.3323478369061089,0.32813646497313576,0.3158240788943879,0.32646597420718804,0.33589474395287566,0.31834728883417185,0.31466917364419644,0.31695405338687044,0.3108709167583787,0.31699256195735265,0.3117351432480784,0.31555081925144607,0.30214115723632434,0.33039293256749386,0.3266002043222278,0.3114098989262886,0.327014878443846,0.29170124136539205,0.32219053593209074,0.3223434649490268,0.34838324722059066,0.33205371769697245,0.32286533806827034,0.34317094862555736,0.31927355218580467
30,0.34282437300562013,0.32415467787723695,0.32634646330813566,0.3244144737175438,0.33414958571263986,0.3204781708517527,0.33719205128596064,0.32115601391639864,0.31968377527404745,0.35687511162277225,0.33419171486378285,0.3276806790821221,0.31654766950273516,0.3138438043725867,0.34491352586929624,0.3290988411988778,0.3217285650625288,0.33438495049421657,0.32880380509155843,0.34508986702298233,0.33356804944685214,0.3222754097291839,0.320034394208386,0.328684965311988,0.31603043414809445,0.31137170011515447,0.3097873764480341,0.3219028692344092,0.3200122972081452,0.33902844069517635,0.3129353724847753,0.3043231597297911,0.297949649915371,0.3290004796562191,0.3375002538637607,0.300164916960938,0.3302975353138916,0.32417923275838884,0.3129440737897493,0.3295938272418638,0.3309421839216172,0.33846467301675587,0.3316798239095583,0.32812071238018226,0.3167274689071481,0.34323805439858773,0.3283534282408252,0.31426099986099704,0.3126822563150723,0.3140362879547647,0.32682288983430957,0.31375936102986834,0.3179861210814218,0.3140654237156461,0.3486061993613382,0.30265662291449724,0.309641135788819,0.3058443215825196,0.3045174985254784,0.32132617288429033,0.3354329467724503,0.3327096028144333,0.3522293368912788,0.3256424550105038,0.32504846640778584,0.32471413599265103,0.3321107446701315,0.3027418865168886,0.31641280438778646,0.3156259094801427,0.31814466078557024,0.3411222195508337,0.3343810800670927,0.35849640979007386,0.3155218128066522,0.3283319893515985,0.32825151856593704,0.31232576319908223,0.3288225200787199,0.3329773897491627,0.31980787947563794,0.3076843407737592,0.3174162607952583,0.3177178185846109,0.31432779613438766,0.31018336721530543,0.31598411873357896,0.31721410106854286,0.3276801019900615,0.31423075757422536,0.30874016172095553,0.322155657488442,0.29852241499092835,0.32694310215549777,0.32439240174534967,0.34596249714145283,0.3444748042666085,0.3152971818904512,0.3463275174843182,0.31630845371223304
31,0.33843403829115576,0.30708480252672554,0.32337874118296395,0.321388126942772,0.3348117584500481,0.31678848699771944,0.3356831859886154,0.31563140169588505,0.3160364345898695,0.3625293923426728,0.3281107602819404,0.3290108108740511,0.3115519801185384,0.3142262476844647,0.3432282148655766,0.334491864111481,0.32376871810162605,0.32877810917029204,0.3273537201253221,0.34020480382501844,0.3265583444330483,0.32362019063499037,0.32823129446474025,0.32730132114147126,0.317347689566988,0.31580870646185405,0.3071181285929362,0.3134904970891348,0.3186158136698233,0.34421858717904585,0.3112254877307859,0.30238587704776815,0.30036168867663615,0.32337867119748287,0.3303619148697708,0.3021560440939205,0.32789362253295135,0.3206074285183864,0.32024761402922014,0.32382325624058705,0.33239682370020474,0.3396223404509246,0.3385427806785983,0.3344606278886562,0.32274006599223787,0.3373195926461611,0.3262514401256999,0.32020968595813104,0.3146981378610088,0.3079654912874511,0.3289991205267814,0.3167810476768716,0.3206528536716018,0.31588639617846076,0.34230216726901264,0.29881921858911464,0.3075168396232576,0.31424094140546455,0.29855122553215957,0.3258992688457615,0.335214840527348,0.32614764968940807,0.3574860385022339,0.3207676149607627,0.32502094400898,0.3230292836447758,0.33295887933796253,0.3115139267590847,0.3170594655819731,0.3289736667727054,0.315738695986289,0.34861078277083546,0.33372049972507767,0.37723621900365084,0.3155570745762624,0.3234829076072356,0.32594924043843654,0.30681323662499677,0.32530317188117147,0.33509831130144946,0.3244422487388828,0.31156599746451097,0.3155590580729092,0.3168092235057659,0.3129312957356868,0.30907613802929,0.3216368128813792,0.32129450295064865,0.32672361919081644,0.3093296661237044,0.3103292101147212,0.32488041948697094,0.29568707751055057,0.3235254180111327,0.3284166528914348,0.34340493802604166,0.35496370163686874,0.31360853015047324,0.34741302314810885,0.3129734373439001
32,0.33873316025749217,0.3072644221676448,0.32326258545764347,0.318925253453284,0.33422796664081467,0.31976139400452885,0.3318583738535317,0.31536971075321274,0.3241599413174952,0.3656804629640421,0.3273844647516125,0.3258028739907649,0.3142370160731024,0.31460895213117135,0.35003674480571617,0.32650116569868953,0.3227373035531418,0.32471467458201947,0.3234573118164036,0.3259289208493982,0.32139345578402223,0.3263217019275147,0.3253855842705246,0.32589259565190554,0.31348605105697613,0.3174256045710644,0.3071877838145909,0.3105853319988839,0.3218113919381557,0.34588496843832195,0.3153858933604336,0.29740516854615584,0.3052928197542929,0.3227502258705556,0.3322724662484512,0.30138866028778544,0.32057793326472656,0.3173555508163618,0.32221556104553717,0.3245066071485775,0.3366506049529786,0.33177082362493776,0.348381612453281,0.33684145699138,0.32345985318490855,0.3346075527096679,0.32482182672001564,0.3179402634342535,0.31839021968458164,0.3048630949061748,0.33039178500863675,0.3120748470362257,0.32438055670961363,0.31506227409352644,0.33334552275494633,0.29647297828982067,0.3119151938342511,0.31615461612019813,0.306512445201358,0.32633110261729514,0.34271773472825623,0.32398962177612545,0.3719821460066837,0.3233200765119008,0.32889943112263614,0.31644608773789473,0.33050568027184474,0.3112004420408847,0.32017081991364604,0.3289354198893617,0.31535769787747786,0.355637229728441,0.3327825703213114,0.3855733721603095,0.31427789462296507,0.32332703711927,0.3283409518827158,0.3098256522929081,0.3246512553509648,0.3359571756880519,0.32546678707123144,0.3132735525061325,0.3158851669404221,0.3141233192663765,0.3119691932643226,0.31577162614414,0.31977627679856246,0.32037523508820664,0.3243234705928688,0.3218601180020305,0.31614043937708547,0.3271834093342738,0.29778806727300505,0.31973922125318827,0.3213839790703045,0.34650093916905456,0.3548804191234104,0.308082784440486,0.34799080512725444,0.31260928962253953
33,0.3399894774638966,0.30429291532086405,0.31224314158631905,0.32036031334635523,0.3276598223718732,0.3183795715559218,0.33324440202112904,0.3057814767212224,0.31917446527231313,0.3758106649165073,0.3258739401561201,0.32644082200144486,0.31359985886652647,0.31353607496795255,0.3458737914582127,0.32094609471887725,0.32805901496999385,0.3261190347094777,0.3355192542378759,0.3215883778098968,0.3252804795071803,0.3296959070170301,0.3229311197984916,0.33247522285005343,0.30068379930734807,0.3177323050152859,0.30927531053805646,0.31870090084951885,0.31691983490114584,0.33733034192385253,0.30843550716060825,0.2946518619212344,0.3070166939293378,0.32613057933031203,0.33287977382975237,0.30202567386459617,0.323707955637916,0.3185552814075104,0.32238559925209287,0.33169955565800385,0.34181056120024406,0.33531068869309794,0.3548939253675846,0.3427006327420542,0.3194435369693819,0.3381990957313169,0.3312553248581678,0.32565631061528777,0.3084172881143835,0.30458429094890793,0.32936896730236764,0.30949209867277777,0.3274041664218731,0.3204130619353486,0.33012780096565686,0.30870667116486095,0.31321924772782167,0.32482679669042847,0.30556374007745435,0.3266544682394351,0.34603946395194807,0.321113672855684,0.36337855859517915,0.3256529936204392,0.32703214959700194,0.31127613803789134,0.3193314417425611,0.30056229526049855,0.32024948888055565,0.3261207388344697,0.3045413862335055,0.35566360700138666,0.3307503375705686,0.3815970813573038,0.31311772376582725,0.32613066582904515,0.3293070890663935,0.30993850955514146,0.31282253354361245,0.33337056306194934,0.329760554701962,0.32129247111535914,0.3152196678942606,0.31506231749319,0.31255573401150516,0.3176418884996884,0.31754703655063915,0.33555737572348543,0.32865544221555576,0.31747626654272626,0.3181963376817557,0.3221985086809816,0.29773379718419657,0.32416542679951477,0.3167221973280883,0.35754183072906953,0.358158725224301,0.30327238481004815,0.3465872017417504,0.3154677998465526
34,0.33837462193220896,0.31257838306347285,0.31612425302429864,0.3243063850823836,0.3248332585819917,0.3160301814704887,0.3399105098320604,0.30610689408816916,0.3228769810291219,0.3680505622014986,0.32607110475061435,0.31782439509254573,0.31699404348622817,0.3205003764822985,0.3616314898222887,0.3159548038541793,0.3252496763801535,0.32906709641576937,0.33608252120868415,0.311642736887641,0.32578878447410664,0.33027113336010167,0.3232906904254541,0.3356908179258994,0.30533179417534395,0.31764458926440237,0.30283707442486874,0.3263120535693604,0.3173908149375223,0.34328620600429083,0.3075396917041139,0.2949636722986751,0.30573792129195054,0.3210819592925647,0.3306828959502599,0.30462680859626456,0.31653986955646957,0.3292401240186796,0.3175578510207854,0.33536913047440675,0.34988944619113854,0.32535675212534787,0.3572212048847336,0.34832422485931136,0.32046190376003875,0.33810966311902335,0.330431838707164,0.3259218679862917,0.3058206684729934,0.30411042069131927,0.32631529334316933,0.31112936215665304,0.3316097784143291,0.3164074447504312,0.33159461071267093,0.30621273763360407,0.3136763913237018,0.31495948707885446,0.3091299824876156,0.32821983652503767,0.3575548233257694,0.319569975707639,0.3669162093583894,0.3215897837497934,0.3226463113439647,0.313840018126309,0.3228162708059432,0.30379834225059604,0.32792416098075094,0.32992876967759155,0.29841983515559906,0.34388948513402395,0.32818658468177014,0.39568244961686855,0.3201162469854828,0.3353014784020366,0.31697785146902613,0.3111880673307945,0.3122738727156559,0.32972498187285315,0.3313736028668885,0.3194652299247586,0.31158616664063904,0.3083228222286598,0.30957756536730946,0.32368457751477775,0.3174776328478501,0.331791188714472,0.3254587020208245,0.3252507536641407,0.3220775520458611,0.3244546620392937,0.29677060504171604,0.322155481244651,0.3162361962925435,0.36482066324883133,0.3467927631196844,0.30649044586968704,0.33989643317251195,0.3192117717963818
35,0.33974000360170964,0.3078695787046102,0.31415053512551766,0.31992200597119946,0.3253395115158753,0.3223234626378443,0.3399586660409877,0.306514933463558,0.31937953705172106,0.3738401205846577,0.32848355510001526,0.3174813495571083,0.31659863541431604,0.3175931146779164,0.3613796386135424,0.3054360968094502,0.32671293813044394,0.3223646095441692,0.3326332756602345,0.2943642431660308,0.33279099007731194,0.3318560756425917,0.3237576463093647,0.33176304036095916,0.3032250042500783,0.32177091057500146,0.3010466464330606,0.32909484064089056,0.31454628953741814,0.3602652384871704,0.3088287341187338,0.29673395419191445,0.3013785664603527,0.32088035757345174,0.32288066381145397,0.30521091093721464,0.3157144440512957,0.3285449399272102,0.3137638469582625,0.3374521485306036,0.3488879655627906,0.3186491945983371,0.35659948452509654,0.3502704875925737,0.3187339507725815,0.3402871179485942,0.3220989096939043,0.32920093599379185,0.3136000424672725,0.30480511855632203,0.32841430587267206,0.3113530977186253,0.319092504839293,0.3177268389203751,0.3352807975852272,0.3009343881174124,0.30945538648478055,0.3119868674376197,0.31461205411376403,0.333995123558611,0.3690183611277251,0.32319664595902664,0.37533483388124966,0.31378547554772485,0.3223348620874676,0.3166961995311606,0.3095528059328926,0.30078401332800114,0.333212248516807,0.3250782627655584,0.2970557616141599,0.3484339582289178,0.3309458448751033,0.39296163367056447,0.31998011055857917,0.34252367318000554,0.3136656106264161,0.31475594303177745,0.3133648311392839,0.33153825784160873,0.3339856129329765,0.32339452344480213,0.3039211065935682,0.3118643626541954,0.30424142116650615,0.3343260199300563,0.312124576628703,0.3316779287626567,0.32212254909184906,0.3158009011509987,0.3225818726539244,0.3218016269026236,0.2960292441573406,0.3215988032305747,0.3239963047166269,0.3578037839888556,0.34589256565030235,0.31104017216481916,0.3373352555319064,0.31728489077805705
36,0.35045877405556153,0.31064252512180307,0.31310953810647507,0.31609519368791583,0.3212880100477297,0.3306636089016667,0.33028221080318476,0.31452016993632126,0.3258528955942953,0.3788510869549836,0.32274674198939396,0.3193739044044731,0.3095565059187506,0.3116181453561912,0.3580578863420605,0.30548569483764143,0.32756941298994935,0.32274266675100444,0.32976892294994276,0.30622236312923623,0.32380781471826914,0.3312422151051396,0.3295417177898729,0.3336354660807722,0.3080316967387898,0.3261601633291076,0.2976311917278355,0.3362254294512425,0.31175462082007815,0.36430553932581905,0.3098118864693331,0.30806553573828493,0.2974334888230891,0.3355640124644601,0.326178909920242,0.3076517216485749,0.3146830853474821,0.3288424233396034,0.31315987711515453,0.3373389108487086,0.34366823489829607,0.3197327868257417,0.3564596952370119,0.3471869564599829,0.31619510391768346,0.34326000332805967,0.31836562953920905,0.3340368042480742,0.3139053860288631,0.3092737075595453,0.32789167517129014,0.3143435627418173,0.31794052749013707,0.3231932182569638,0.32828222011271774,0.30185550708855213,0.310375671148984,0.31925124171106967,0.318703303544434,0.3368311812376607,0.36527962932692837,0.3275491447988227,0.3626269968988568,0.32198733152400244,0.3199950885805659,0.31604101766403864,0.3061931909492947,0.30855531971616285,0.33080287635127165,0.3268179731794566,0.2876728761946007,0.3448598233680542,0.32358785855095784,0.37390430710589867,0.3192718904702382,0.34194847659492444,0.2995934090795411,0.3203826027126476,0.31026311794024075,0.32966583854773673,0.34836254084294926,0.3259274050362574,0.31667137076153595,0.31892015224808606,0.31483038649581363,0.3338445564051791,0.3137267455927895,0.32825517338204513,0.3239088985292237,0.3101890231459582,0.3192521587999836,0.3245342508484713,0.3014482492425502,0.32674563751252245,0.3234518759900014,0.35806808719622335,0.33297785673962443,0.3133159094548379,0.32903808484256536,0.31319488281317304
37,0.3425811488382887,0.3094718864867099,0.31339980049263894,0.3141394340831657,0.3214706178289068,0.3304525180393035,0.3257608356599125,0.3175301697075691,0.3251424535481549,0.3806167200129876,0.31750711336924897,0.323681016704564,0.30225472456437175,0.3181724852921085,0.3525092246341922,0.30952334806298687,0.3212879132400511,0.3210586460370134,0.323903760073715,0.3011912115485613,0.3275013276791219,0.33031929129065085,0.32617637117910897,0.3384202946754302,0.3028646558129005,0.32492508819772736,0.3016842985021021,0.3358313949746278,0.3086376879641595,0.3612772143916656,0.3145133775410903,0.30725526826191996,0.3084799841579806,0.33536699272533765,0.32429223255734596,0.31205749110613606,0.31606515487316594,0.32623207891899597,0.32224141382729254,0.3453543939534811,0.3473451918610885,0.31335245437051074,0.36051868640647944,0.3457175299782118,0.3149941427979475,0.33890617537847634,0.3037168710878836,0.3208143966299772,0.3160866240322026,0.3044685061202354,0.3338390400026061,0.31968023071684026,0.315688718371278,0.32650613406047413,0.3338488405115003,0.2963557161179499,0.3080485629067017,0.3175437780968523,0.32000316421457564,0.3403988158081262,0.35292885895993015,0.3316894189888201,0.35939275810907356,0.31863528044675415,0.3246728330680536,0.3191257424196618,0.31146267047222975,0.3132619558728874,0.3265106869037433,0.3253090743093633,0.2873820926417272,0.34423961027927946,0.32479297475229235,0.373513072599558,0.32039911997307247,0.3476584061029518,0.2821054838838771,0.3200760704899843,0.3030144763083022,0.3236727012865458,0.3547055888554892,0.32261696649949384,0.30979655816292045,0.32100370036071835,0.31673063468742996,0.3323805622538484,0.31676172288654775,0.33163410265625015,0.319654888507786,0.3105503276926004,0.3096903212136334,0.3225252682025088,0.30411593089165445,0.33607880764712394,0.32307979513337043,0.3545546774040794,0.3267441553178715,0.3073522439906997,0.3242277992248989,0.3072861102568144
38,0.3381807707542495,0.3161454652843293,0.31283580798067284,0.3061146568071763,0.31515574982745986,0.3310795473481246,0.32529193003044127,0.3129075725313105,0.3205977588628724,0.3737416565624346,0.31506897640665077,0.32217930534135636,0.302256411598513,0.31820470814360385,0.34986385082131366,0.3114322239707071,0.3186848366856698,0.3278183995700326,0.3227488888869287,0.3040179501200563,0.3381138251139884,0.3260140274856148,0.32406656064854095,0.33895489643959953,0.3013519675238583,0.32452295043088664,0.30192454364987675,0.33361242416966197,0.3055705919645498,0.35640151122690633,0.3204141427284405,0.3095377153014978,0.3127105143131098,0.3329835654610715,0.3255379257886528,0.3188070463857175,0.3202129363515882,0.3269393185872746,0.32345675563216225,0.3396483715503602,0.34672076900393045,0.31449878174936413,0.3733661081599552,0.34089239045210223,0.3182296999819597,0.3320240895883611,0.30494332089705434,0.31598477978127354,0.3191849544673607,0.30830154159687,0.33470804285116307,0.3168703530570588,0.32622421244306266,0.32630799455365683,0.3376799864286365,0.3115913569963475,0.31052101147465183,0.3146095095733284,0.32072440209084174,0.3365681670593986,0.3554678284991489,0.3279552596385156,0.3547014524266121,0.3201477902344422,0.32541818338777917,0.3184944360084965,0.31285644509431726,0.3105071333048083,0.32587219812325313,0.3226459359566873,0.2828371350875452,0.3427418893322016,0.32736670683192853,0.3720445373188227,0.3193391364460065,0.3448141109448989,0.2963063261402176,0.3179545037656337,0.31308506611212605,0.32333848818025457,0.3600315998919381,0.3248606619338321,0.3093671461617777,0.33415696836449454,0.3196300124566239,0.3414448190527849,0.31436200210514276,0.3314201454786685,0.3298827649237615,0.3117908624390874,0.31983256887132183,0.3209998917282989,0.31279306091045694,0.3339165790458246,0.32364808049707705,0.3417512927659173,0.33337393360499445,0.30944399388230487,0.321972164107774,0.3067289279443412
39,0.3393171468892251,0.3106677658966237,0.3121384316201736,0.3114804483492055,0.3146377163176532,0.33352474733263376,0.3254164722491722,0.3152212840435677,0.3179483351623758,0.3709474783378274,0.31037506361913686,0.3232237387460194,0.29439830807762296,0.3171883544167935,0.3396182799537659,0.31919446575284033,0.32820353102405864,0.3333208038157755,0.3144634043053537,0.30653308445011135,0.33331257562370126,0.3259895030571717,0.3238222618479707,0.3302934920426255,0.30628168720832843,0.32740236758410146,0.29553591790225536,0.33367025560179686,0.3110502731509765,0.3666525454275852,0.3176589316559175,0.31242166595517806,0.3121555663717132,0.3282618693968049,0.32832344708532246,0.320773030097304,0.3198192074870025,0.32690252896547184,0.32708437156747483,0.32761322287414585,0.3383056863400288,0.31451137967021314,0.3710724950105807,0.33418611219829747,0.322013530737714,0.3212641481336304,0.3066042501861771,0.3245426074158685,0.3225560935104954,0.312483975854698,0.33650849325963794,0.3168891998378879,0.3202932210764392,0.3272633124161941,0.3344852949556096,0.3030618670483192,0.30159610855240243,0.3110195212065593,0.32038892908414385,0.34615242884323016,0.3490594243108539,0.3235799722562044,0.3595663658399223,0.31675615609315944,0.3253712198512391,0.31629575870653953,0.31395647411872546,0.30880942509342746,0.33685860940992385,0.31826113360504105,0.29670737867239955,0.3422710448929896,0.32523545786514757,0.37717464824078334,0.32224000274559134,0.33881219932109186,0.2944046393746601,0.3194653862289073,0.3197272749190773,0.3242831389558554,0.3580044116042923,0.3263364399440688,0.31320261614867945,0.3356301980386882,0.3196372131412663,0.3413559670735573,0.3087496325755399,0.33361969842329,0.32743969075234747,0.3136694649937202,0.3257578980734784,0.3234741367149506,0.30915216084752,0.3301806435196709,0.3252659407143586,0.34101231183563885,0.3330239350067634,0.3043101550071858,0.32121945803232277,0.3089155468406225
40,0.33670535146544894,0.3198662117558825,0.320898921226253,0.31193332607788754,0.3138366045707589,0.3293480921692652,0.3180438677312177,0.31482162744961867,0.32010293977268234,0.3669473512365009,0.30587205637645365,0.32616817050146196,0.293788165464791,0.3171703171051095,0.3340878106475909,0.32047080367258773,0.3312864948061073,0.3336094859075131,0.3138992747922337,0.30832513096297565,0.32343106824066203,0.3304646368105231,0.32529596637639513,0.3277446857665417,0.3182731012021583,0.32902376801283884,0.29359584275019335,0.3272108034671932,0.30977088153331434,0.37137786378232623,0.31036071571150803,0.3108908596207625,0.3039966111236681,0.3292837368613072,0.3355549618608379,0.32736330515484957,0.32539637785160697,0.3266263894187663,0.3298310856543714,0.3262942177907362,0.34924886272481515,0.3136668887015753,0.3629920210690106,0.34082589913898476,0.3139410354093016,0.3205645800700518,0.3072797378858951,0.32232211332992156,0.3195981541634221,0.32042124495044455,0.34226810580838407,0.3177523076904919,0.32684058027525426,0.3259416614719314,0.3453556854484051,0.3081571671896271,0.30228451616760943,0.31020036234140597,0.32680846868108093,0.3422095878812058,0.3387936842765361,0.31797044994097307,0.35596302004978886,0.31722095791471683,0.3207798492989831,0.31205826005637494,0.3092095842148078,0.32009042265186893,0.33644334025196077,0.3172645612383468,0.2934862927802395,0.33998762332801363,0.32390340736354073,0.3543252954785151,0.3194974393867977,0.34242574232088724,0.29564109117903115,0.32396934220943574,0.31288126127468197,0.3219025530634727,0.3582780242533457,0.32891517250989866,0.30860310605885566,0.3397397256319936,0.32006480128363635,0.34553940597920774,0.3090312846427008,0.3300707947105493,0.32899013753176193,0.31508120646093407,0.3235539087321948,0.325108029071175,0.312290881879509,0.3299701684250363,0.327731145653268,0.34778914696337304,0.3324601489895115,0.30269686757860376,0.3268080624043111,0.30989655274289535
41,0.3332549375240405,0.3137625815794745,0.3179395898326931,0.31369768599696435,0.31255922954488335,0.32663711570033954,0.3213649841169587,0.3263073059888323,0.31618801212808595,0.3665427092349769,0.31118531463466403,0.32566488324320914,0.28984910715438184,0.32293032247980513,0.33170484535043204,0.32286630736920924,0.3280203130819934,0.33415963916404173,0.3204579517492089,0.3060483417708708,0.32593577805293517,0.3336597793758668,0.3263955051562366,0.32956172475419343,0.3192844617415134,0.32846769897015304,0.289680603814789,0.3213896132609193,0.3058408541772296,0.36546831116156264,0.31284788216658627,0.3094228234093003,0.3004388281000265,0.32012001189257666,0.32954952630522544,0.3229213134427669,0.32454906265429845,0.3258464940453808,0.3291866382445421,0.33213376782897186,0.3535508500477574,0.3077330593359577,0.3544830753248969,0.3399049942189952,0.3160096447342037,0.3178963873137397,0.30793822710912994,0.31972591174823367,0.3214757138937994,0.3219831533132382,0.3409713823962093,0.3178764500015738,0.326232913830789,0.3295730993384333,0.33524701040310256,0.30778200604291706,0.3064614476715882,0.31592092220616574,0.330523838915867,0.33716433868497225,0.33271397752403314,0.32625771249293,0.3548047589527129,0.3184508117130015,0.31981015713604793,0.3155946365046398,0.30682506449009733,0.33033973475294215,0.3352328063670763,0.31791550670837576,0.29583214920531453,0.34427101713353303,0.32029951558922476,0.35775214197634486,0.32357818453807974,0.34675644201536426,0.30713964266011806,0.32268601586452084,0.31439660636030414,0.30896280169711543,0.3579410738320933,0.33670300720111646,0.3066882313245568,0.34056400309585344,0.3199959504911437,0.33843074962572717,0.309667165245579,0.32655252794844486,0.3287459374041543,0.31282117708255053,0.3141904660239348,0.32936317401934245,0.3250130601991143,0.33389822687464205,0.3325789760927177,0.34637473831467924,0.3337945353548674,0.29201690611809644,0.3266327995264161,0.3092632271373751
42,0.3294141015227255,0.31409818128310835,0.3201045167675628,0.31359577852522824,0.30999653569982943,0.33285566508247466,0.3151465681532205,0.3282515489751725,0.31393349426258865,0.36974552019805834,0.3147639905094155,0.32473639687230876,0.28639728834297296,0.3191724550330647,0.3316190753616242,0.3250851156906369,0.3306846245144758,0.3324407516411227,0.3223374354402996,0.3045137896891205,0.3244162924698116,0.3281433341768662,0.32788903513122836,0.3302598009200153,0.3107643009797735,0.33315213757234774,0.30009625739777424,0.32423659373420977,0.3106649028005864,0.3683374915214585,0.3123582362311241,0.3046426649331825,0.30068492933356167,0.3164709324196138,0.32582399372780124,0.3286651485746391,0.3157658492654727,0.33160408986613155,0.32690332731636795,0.3386566265461989,0.3478038631940704,0.30594402576977175,0.349116047434698,0.33245063959253746,0.31929690713399583,0.3162587650016585,0.30589374547835113,0.32110143865784624,0.32808029569205455,0.32377831361707965,0.33508356731008726,0.3219132297016932,0.33478948827403315,0.32523123658376624,0.3308133387898443,0.3045001456453984,0.31110629535875506,0.3196637619697521,0.3360808985102118,0.3351676095101325,0.3321387519860822,0.3177204325008114,0.35690497007367156,0.313333544563669,0.32097164989843746,0.32075707171619894,0.30594053444204194,0.33057941865508034,0.33658024919523166,0.319911594388577,0.30375637098338093,0.3410996013189483,0.3231092025859269,0.3526692244123813,0.32521995391984376,0.3484047101128294,0.3074910759566558,0.3255338099596048,0.3177203948787878,0.30759076566341725,0.35706616140596037,0.3376205280684245,0.3128676422037514,0.3447161634872933,0.32207703555151834,0.3362859447915211,0.3178983050600296,0.3201212247990714,0.31687716177208103,0.30986664213489534,0.321845414760456,0.318474000813694,0.33069481817328455,0.33575911247874995,0.33094398759044064,0.3390646814210544,0.3406812153639248,0.28509290917446256,0.32848612151876166,0.30983373128813707
43,0.32306114319915064,0.32760104016114944,0.32366737651442284,0.31096164279536487,0.31581736899983864,0.3287150279869121,0.32189848410702243,0.32615491848912376,0.3234795415810023,0.36855731789296764,0.3177506616016247,0.3242369202055486,0.28432249038415913,0.334428597842931,0.3237916352706263,0.318508956021612,0.3255516075075094,0.3268345159923775,0.329959096251768,0.30990863200034285,0.33243409285466874,0.3265428147986075,0.32952448684426316,0.3203705120977705,0.32224735146562855,0.3354626434180073,0.29764639995534753,0.3220210774723323,0.31152717883366277,0.3704352986480975,0.3171824524412726,0.307192358212211,0.3014883235827385,0.31915422498478485,0.32968172155083686,0.32892526002279215,0.314010174288582,0.33461347462317964,0.3296343178032961,0.3370441212013016,0.34006059239716707,0.30670103841716306,0.3645299179031237,0.3302607948838088,0.3202968333585032,0.32106092231826117,0.32260610188957844,0.32036265496023597,0.32771838623564176,0.330817253013601,0.3285809492773636,0.3230504047209575,0.3329307695739855,0.3329474858087439,0.3266490489929633,0.30260283445755815,0.3151307968736142,0.3258183620776662,0.33119350259509606,0.32342401396948744,0.3368561259283395,0.31370515164275053,0.3565969880020993,0.31327560608687866,0.32573565561111495,0.320182597750578,0.30393268362585946,0.3264215981170313,0.3350643686661674,0.3238612501127295,0.31465144190078675,0.32865072707158893,0.3141978831230151,0.3522308189277582,0.33215700430063977,0.34537769811262803,0.3009500591150583,0.32977469769366974,0.3273333818990146,0.30858488005081675,0.37799676496518375,0.3359546543755983,0.3045826767447684,0.35280181120224813,0.32210481851000355,0.32831860776885385,0.3207646764412536,0.32666429403445774,0.3213190154739883,0.3065344427044903,0.32237966968127746,0.3159581294774757,0.3302754452468046,0.3402537151460452,0.32836605404832825,0.3397063770221516,0.33622430161446865,0.29262591736930355,0.3283157630552208,0.31056064691566665
44,0.3190781813479428,0.33771579070875213,0.3261244392051371,0.31283556985314126,0.31425447760312164,0.32954121915794343,0.31641563702919245,0.32142163833833354,0.32545588618489485,0.37407177222521726,0.31952234617319175,0.3229687631930699,0.294458501372663,0.32928035996427657,0.3231435736779783,0.3138386395460986,0.3254867854574149,0.32332916571781534,0.32901067393930666,0.3027031929311696,0.3321041641497871,0.33132943696324685,0.33458518639335477,0.31257406146443767,0.329520204632972,0.3362176618617461,0.3052591482069763,0.3169853085360549,0.30472801316300974,0.3612064010384223,0.3183822934032795,0.3101350062187544,0.3062242885851555,0.31934041499985033,0.33107103084270184,0.3237254558705447,0.31184370810935597,0.3292404043486342,0.34028175503969676,0.3391628275447723,0.33886139194532827,0.3084150769802197,0.35550266480221415,0.3323770706534869,0.3228470610329306,0.3225845658956212,0.3269853805567494,0.3177854780677902,0.32177840236027755,0.33063405964971354,0.3273777045550931,0.32233637463519854,0.33942107738032873,0.3287823654955754,0.32829261592583736,0.3062245199831545,0.31858142017155217,0.3323758046074224,0.32602346084311784,0.3225886525900785,0.33717085538614844,0.31279274785534217,0.3618555953934912,0.3071502169412418,0.32825139162203165,0.31503946755791623,0.30745513085040055,0.3261100514775227,0.33031603713378777,0.3220987719003193,0.31318372496666214,0.331230169555273,0.31065711883672287,0.36248511048613913,0.3281030746537488,0.3494406813460764,0.30129743143375354,0.3297132180281002,0.31173756005947817,0.3075083622266758,0.3777587871733332,0.33953136486712665,0.3025635715107332,0.3525014395657727,0.3272959771830604,0.33128614581717475,0.32648847242713286,0.3325573225724791,0.31811144859808366,0.30613413055388977,0.3240878096968091,0.32094100858837227,0.33133174734244153,0.3285378948473813,0.3268999088842808,0.34366928255669027,0.3387251117300852,0.29930455362631714,0.32691156073354194,0.3067866130102574
45,0.31838492339638874,0.33461380858680456,0.3222607504705409,0.3106618674116555,0.3093700418080928,0.317959010688197,0.3180246642946637,0.3174691922869273,0.3250580170424012,0.3807571312978507,0.3178749876367907,0.32312686118986,0.2990060074613343,0.32043587576926413,0.3230861888837545,0.3195311679728125,0.3325808399935011,0.32627154562623994,0.3280297055838132,0.30111289623299275,0.33076762395992276,0.3284160891834803,0.3406176310449027,0.31499651417905483,0.33624639490775265,0.3318537114439525,0.31717540997848115,0.31186824739413954,0.3090424953658946,0.36748093015286026,0.32165351360683253,0.30831384109499543,0.30761839149068304,0.31785765963535306,0.33634483947586075,0.32802294907739576,0.31805064226968943,0.3318397237766887,0.3467862235063462,0.3446476385976425,0.33605523800706966,0.30561090921216155,0.36553159783866834,0.3299328688579031,0.3233348311311683,0.3208093898615744,0.33379436304369214,0.3226073503192587,0.3262533418536246,0.3340955399578188,0.3348143434478436,0.31672869938093623,0.33352154498216685,0.3344287844601578,0.32511283609515046,0.30470012096453497,0.31902323146788336,0.33447012397273224,0.32725448593100454,0.32598360589740205,0.3389452308623694,0.3067018372532405,0.33544119574893794,0.311363265922486,0.3247483159376306,0.313475929566845,0.30959817212174884,0.3274109512162023,0.3305451364714059,0.3214964546922747,0.3172462334280358,0.33241164433299636,0.32098350682327836,0.3648980523893167,0.33457488201007335,0.34763866166399693,0.31331127033272355,0.32707139655511835,0.3077873856940887,0.30632536798623816,0.39535766715168175,0.3377174678931504,0.30481591999241026,0.35615202057109485,0.32624623094032285,0.33002056247927647,0.32672271159233973,0.3298741892204523,0.3262844235932498,0.2987739750228547,0.31799513208441466,0.32492344755731606,0.3352287036602975,0.3390446663209593,0.32488460667758834,0.34407036003626823,0.33250899582444204,0.2931847030711522,0.3199682779279553,0.3100050308355773
46,0.32169952061659124,0.33417032178438155,0.3199239946041169,0.31389744863342106,0.30557569170226306,0.31933985204981596,0.3229280892976585,0.31599529681203986,0.3273157303580374,0.3856082061595444,0.3230099592420973,0.3224157818108261,0.30876019768616786,0.321937381296556,0.32539952197875793,0.3284830029890812,0.3225762284726806,0.32991420031932084,0.33829533066663625,0.29250187468858135,0.32333404471734417,0.3268325479631201,0.3452375133029716,0.3024588797511273,0.3312422081661678,0.3167659041104061,0.32239924096422656,0.31174949007951785,0.3133642466930617,0.3566624354327916,0.3207692995505322,0.31933786726739866,0.31050975310234835,0.31601592558215275,0.33463686000042797,0.31983384028940265,0.31276369739010307,0.33644819705552553,0.3424266459777108,0.34083974340734147,0.34295139742779346,0.30939694322322786,0.366373667826539,0.33225669143521414,0.3315536505840371,0.32004523745072627,0.331631043863609,0.32525457631207383,0.3277813116805021,0.3330467579707532,0.32800617973116386,0.32127835676596944,0.32184184085976175,0.3372019951892369,0.3236764219297351,0.31222095058280297,0.31618471231451156,0.33415985717741614,0.32262225709804293,0.31581986604111373,0.34803371633248265,0.30870031564036365,0.33411629062627385,0.31368299033998265,0.3258422202650362,0.31179214935558547,0.3142695508648971,0.3286080432656589,0.3277821352739591,0.3232053671229174,0.3247394742012327,0.32466150639629854,0.31845116868463347,0.35565297798913137,0.3328086517578915,0.3452195003688713,0.31491117236641036,0.3312898377704539,0.2997886047313226,0.313669459057867,0.3955838562918645,0.32951117372674876,0.3133836883465362,0.3430411475684195,0.32964599542297773,0.3238773611979072,0.3288482963665624,0.3267609168123259,0.32652552355754294,0.29492148255389583,0.32079632271729736,0.3263292283021229,0.33257121675252116,0.33530182296088495,0.3274917464731262,0.33288227396311343,0.3325365695886638,0.29414563256316295,0.326665885935077,0.31801082672076497
47,0.3182689377629325,0.33142566811395413,0.3285751000253201,0.31700099180928115,0.3077067801248628,0.3155293134371743,0.32729433649687373,0.31569760237026107,0.3296111363347296,0.3772534088245258,0.32489274415131475,0.3156630767345387,0.3045276257177153,0.3255192960822476,0.3184540639263648,0.32765528524257326,0.3129834272845841,0.32690652781442486,0.332340187278447,0.2951071909559009,0.31916486111953246,0.31901563417390777,0.33906426179803273,0.30881310305503457,0.3373308979556958,0.3156660423183541,0.3223553198107408,0.3142580278301119,0.319066640094513,0.34940176066629836,0.3195705848471516,0.31481752363022864,0.31371572118113156,0.3177418850339469,0.3359126788784447,0.3189792434456532,0.3033927282042145,0.3352714363298346,0.33588139682376933,0.34954946034719653,0.341772996928325,0.31669206128674754,0.3621208042332578,0.3290342938244949,0.3234194606668078,0.32290252083882137,0.3270335301208776,0.3307583289061783,0.323041753198547,0.33244426064746857,0.3296106045650086,0.3192472928847002,0.33262245929347,0.3338036335172886,0.32656433492400383,0.3126121043761996,0.3233827385722486,0.3363707839809647,0.3237929990591868,0.3075742665893344,0.34605477629669557,0.3073831119623571,0.3320585960638053,0.3175132103056061,0.3277929259704667,0.3114415435688235,0.31201384374099084,0.33583889515341403,0.32968143560389346,0.324880642450459,0.31652908078851577,0.3198227629244421,0.32431055530102,0.3726925658023007,0.33284724115128345,0.35023026809647323,0.31673905965145555,0.3296142809666402,0.30234820149420916,0.3143806802937253,0.3915179752849506,0.32930661056315885,0.31955938454917227,0.34005120651715987,0.33182623572186,0.32633757098272037,0.3291362185785046,0.32225070186865007,0.32965951930556575,0.29942714452183894,0.31735209586159396,0.32619872945417483,0.32695823244171396,0.33748928886804425,0.3242552827850307,0.33570237241822304,0.3249410884639995,0.3039428692365254,0.3263376292932684,0.31955085748068307
48,0.3138451469540864,0.3291082779933793,0.3411431126443173,0.31488326574775993,0.3128913092271361,0.3166272562436333,0.32431860821958447,0.3098798180952914,0.3357491745915279,0.3625446431722704,0.31653433248589735,0.3115583154840313,0.31493671470057844,0.3303194782664717,0.31161182471697624,0.3247345529717755,0.3321675770883254,0.3316709500538306,0.31707912893374063,0.3009027713705087,0.3240610134156464,0.31954134551537505,0.336149222834804,0.3083084051294276,0.34141022850991926,0.31780532420351587,0.327976162546286,0.3114884492093774,0.3262889563430983,0.3510099975631965,0.31926592921128527,0.3232409280874131,0.31321999653950877,0.3094089026539838,0.32211158871540807,0.3230714428629152,0.3089549307554644,0.33106852840156364,0.34585690378236167,0.34209791459331385,0.3427095100780434,0.3166930268969938,0.3543465914861109,0.33000329030939757,0.3165584213042671,0.3262362409972455,0.33206318899745557,0.3284356059053331,0.32648520326082875,0.3306315787384464,0.3359131634488633,0.3173462369503954,0.33217263560210997,0.3319602573015442,0.3239517132435429,0.31128966648055095,0.3256356646526191,0.338199362370755,0.3230196473814936,0.30521470557157643,0.34549928705089694,0.3132390523744467,0.33517482388530945,0.3161333087363191,0.3246094575225088,0.3119713469752374,0.307544723947743,0.33300027302636753,0.327400060713219,0.32873624131410345,0.31335533452173686,0.31480326483975063,0.3301109946432276,0.3587754045848993,0.3343745350483255,0.3540188165202576,0.32141307516866197,0.3352178641998039,0.30091742353862383,0.31563277295049985,0.3799581362074087,0.32516025939005977,0.32091192004386365,0.3414176789568818,0.33899955122678177,0.3200512534376152,0.33476763215034294,0.319792665593027,0.3411742736711162,0.30578160931498355,0.31646452676548426,0.3251420446184069,0.32819405203468566,0.34177259061845716,0.31750138724818383,0.33317373984640153,0.32427993730742044,0.3051531927651071,0.32700612060915185,0.31173653129400003
49,0.31761478720978686,0.3293138138081163,0.33254522302049244,0.30844544377275573,0.31353331884738933,0.3146169017346788,0.3173705683377546,0.3042051986841725,0.33220859947079506,0.35995232955526835,0.31662136862792567,0.3132456077361501,0.31211906122228283,0.32827652630753745,0.3138428852169587,0.327726701202883,0.3397591246434787,0.3382606044807601,0.31539576334580416,0.3069693254501908,0.31967229374741757,0.3210742350035209,0.32776387716231187,0.302627434137068,0.3414102285099192,0.32173759188260054,0.32513646723607464,0.30950757969600246,0.3307488223788981,0.34562773448571343,0.32594707960611274,0.33233747721233925,0.3112738679712687,0.3136793434265776,0.3264834324836193,0.32116665393420896,0.31499772333675014,0.3283101343111751,0.3524994695638545,0.33780979796475197,0.3415680804567317,0.3210238622991667,0.3448570580466423,0.3273500182763175,0.3131513179675131,0.32630007281662166,0.3223065300938389,0.31988261313028044,0.32508039164773156,0.3396472124476243,0.32528442022537624,0.32463693212046996,0.33789924453225656,0.3297876782854108,0.3139747933810357,0.3178969613732408,0.31617308774174613,0.337422915468664,0.3234453887435799,0.30887510907315974,0.340894344901636,0.31560587277476454,0.3307568728307474,0.32597110838021714,0.3245796979184575,0.31235092159224015,0.3246739632743013,0.33239143286046013,0.3300471023231465,0.33082163693108807,0.3176670979968713,0.3147028757349538,0.3480380382031235,0.36022287145180115,0.3404389990365235,0.35111646771749766,0.3249199653535945,0.33897777663086787,0.3050464009750618,0.3205442858713954,0.3736731103974281,0.3285582131024002,0.3133497464416032,0.3491414447796709,0.3274783789976906,0.3251090363927548,0.3314035321993533,0.3163689655464845,0.343338354137248,0.30670762259352075,0.3129107818283675,0.32152798036375174,0.33977862495581423,0.3325366491837456,0.3174253872875821,0.3372174132149408,0.32295382513664245,0.3026849180355999,0.32477903281747095,0.3132143728401423
50,0.32174993929349965,0.3275971505300528,0.3271728664290473,0.30401546489920406,0.3196025865268572,0.3147892280738291,0.3184589226102466,0.3000699686939605,0.3319445228307974,0.36168927516629046,0.31254186499485476,0.31167703173006867,0.31946209768826017,0.3295389431069586,0.3148133309064754,0.3319358506629534,0.33535613474489373,0.33206031435251027,0.3192403670477615,0.309284028002753,0.32034089625628326,0.32411291983026225,0.33139025767562225,0.3013695304295688,0.3447388672371677,0.3223748164186053,0.3199214234290523,0.316704209616868,0.33552258320280853,0.3392721894742709,0.3282955434451436,0.3363407215500445,0.3129585681389898,0.3112690872558912,0.32078924478286464,0.322742136780395,0.31389672043580263,0.3265552386045191,0.34044179670999936,0.33590588625397266,0.33537134200455065,0.3194329538175929,0.34387310906088786,0.3269310342922283,0.3110654247554724,0.3242935638944805,0.32165259785239436,0.3175152829095955,0.3351300547588935,0.33978365203734695,0.33240981810189374,0.32614796567453486,0.3451509307672357,0.33035122637547887,0.319650659454351,0.32504568144687146,0.322170908395062,0.3406690460883753,0.31783055786229647,0.3003069305688153,0.33129760680592246,0.32020444776849044,0.3292622090959912,0.32455691260135566,0.32180235753111797,0.30562609236969096,0.3168469708643665,0.3294342836391779,0.3258875621045899,0.3255766197613607,0.3160358215151665,0.31470576950611356,0.34217356998400705,0.35714310095129614,0.3368374538323261,0.34480902108955974,0.327497589695411,0.33414399926628374,0.30920958907278157,0.298963223735027,0.3738062230385716,0.328237575690997,0.30619665285705805,0.35071564244906284,0.3241305105406387,0.32312676476814306,0.3310326767658957,0.31124927905790056,0.3447012367839745,0.30390687202037053,0.306805098200721,0.31902706376283346,0.336796016126388,0.3476056995553834,0.32304778368276776,0.33722872392880504,0.32531020770902447,0.30086167006789744,0.3291578106524953,0.3151139787411545
51,0.32826284172375686,0.3290434068246647,0.3267588049946565,0.2970636128192656,0.3109464553622482,0.31558032538283914,0.3217469621540595,0.29603189960774057,0.3415278198605889,0.35163727454038757,0.3132720047290773,0.31165593604457875,0.3144534300918902,0.3276280637743309,0.31396562840385933,0.3347046804729583,0.3450252343245569,0.3341453283147445,0.32183064719769816,0.31517714700726435,0.32540032876818287,0.3209764126035252,0.33382156566766874,0.30389878845888885,0.35230118048477077,0.31777862617730424,0.3289274420798023,0.31475672813996264,0.3278119576407614,0.33784162601571105,0.32539196433392104,0.32897088177690753,0.3152557925063916,0.3187347510402624,0.3111468970111394,0.3224585076593428,0.3183053643823151,0.3193194268993102,0.33874820603266353,0.3436442834548744,0.33785844580917845,0.32025950405628173,0.3351296823616136,0.32519366798420857,0.30314023133935,0.3141004535808479,0.32453258813569724,0.31558142844664094,0.3399295812366712,0.34355569231798117,0.3393126536018695,0.32762661864388454,0.3433625662925331,0.319015459739606,0.3229040707123917,0.33469921033774774,0.3250122685897729,0.3381664284369482,0.31899012126645676,0.2917537058304742,0.3088595136575076,0.3197725142513785,0.3215225479872973,0.32357500649405946,0.315902166543336,0.3063429194643288,0.3165725499047797,0.32762278851996085,0.32753541001261754,0.3316441515191027,0.31391790961419347,0.30962135921454814,0.3502871931131584,0.33479390005815396,0.3300740762784661,0.34297481026923005,0.3345942015358635,0.33662093820264266,0.3157626031466171,0.3004031639632226,0.3759196835009447,0.32481034135795434,0.3110965475542803,0.34747014730987913,0.3228425955517742,0.31143497050964636,0.33224830204547534,0.3076205707443037,0.340065286066775,0.3107423740364301,0.30124492803377323,0.31288405210601294,0.33434213205194274,0.3487035950839056,0.32196626241400084,0.33503819577169164,0.31399852905854675,0.3058216947971521,0.3276524834854165,0.3155345474002581
52,0.32570568905221503,0.33366892160145384,0.32522215235041735,0.3011142275518356,0.3157413912687805,0.31576258218121606,0.3183322030434107,0.3073949301419088,0.3394909296647433,0.34793968101209066,0.31321132296268217,0.31196072993714247,0.31940161146265156,0.3321345068908068,0.30853150618070857,0.33637301815109233,0.345697938081166,0.3296744305045399,0.32026925840338494,0.31006927146698793,0.30921641855862514,0.31516917655599447,0.32967539931290296,0.3063729733865568,0.3578294661505544,0.3168789934008701,0.3286418646997382,0.32057473772029194,0.31801121082519956,0.3346117684301468,0.3298569138258932,0.3293555699156484,0.3165688333639948,0.3187557138184315,0.3089170450233345,0.3151206292675561,0.3247204146028174,0.3279277058589402,0.3421773293349132,0.34599491520596853,0.34148967157413257,0.32226019801624217,0.3334944111918723,0.32567201419897857,0.3151941496768658,0.32372527546523044,0.31043979623783063,0.312314057351214,0.3358900100734597,0.3396275154923261,0.33266518347976726,0.32837486985576375,0.33012264152561965,0.306036527718122,0.31855475248739984,0.3359517622297282,0.31200598754561437,0.330086890175613,0.3274509568508294,0.29741216412351335,0.3086524964025447,0.31984112061467496,0.3219648894875225,0.3324433053753929,0.3178892653319678,0.3127593385708515,0.31781275029168005,0.32090309038827436,0.3197332333475456,0.3294720185282359,0.3119742455409885,0.308398911949247,0.3476270038837602,0.3292031456983026,0.32715495546674184,0.3422641096452578,0.35036183562118417,0.3385673637279372,0.3175284408755096,0.31801213134791273,0.3782682429632489,0.3275216996418024,0.31099631963120306,0.3340925200176001,0.323765641166282,0.3210099674295117,0.33922010544771375,0.31029257367464746,0.3428463416311612,0.3175066482094391,0.3067502069861454,0.3137595021686745,0.3376853374410701,0.34244195042148884,0.32336325977634794,0.33462965415203133,0.3082412027493914,0.30057199916478805,0.32770571210018273,0.31797328480620046
53,0.32613684386365677,0.3320637372563187,0.32922089749269634,0.3046026395579444,0.3117163713977332,0.31438597890337755,0.32850943532420807,0.3033455684118981,0.33592358731596866,0.345316411398896,0.31225810476897453,0.3142570671671502,0.32094251737449714,0.33041654851564006,0.3066820529336012,0.33913363117767054,0.3489634916872792,0.328184661350633,0.31910819060193973,0.31290025537069577,0.32312758070718317,0.3103074888952458,0.33354335680383523,0.309822269151392,0.3503688145914742,0.31451104242662165,0.3367781670101199,0.31198185804586825,0.3141190098200163,0.3406489812535821,0.32910565983731044,0.32740302145958194,0.31850613154248897,0.31738146409510537,0.30772579341667994,0.32033562455663867,0.32424659989832466,0.3228645000162764,0.3350630723003693,0.3552130674142574,0.3418688350210335,0.329273704074188,0.3449876132094364,0.32418161423079966,0.3155112959283162,0.32683450609810494,0.3137199372921442,0.308753058378637,0.3316117238533528,0.32961778976700595,0.3347588765749834,0.3292175338188727,0.3224895397017024,0.3062413715761352,0.3082920614361243,0.33293919355932183,0.3129055371455835,0.32961267686651763,0.3233336822437747,0.3064460538436923,0.31140994245706555,0.3197813802651805,0.3196946011943945,0.3356495315218871,0.32000153427677736,0.30924488668521677,0.32431504665336913,0.31495078213047767,0.32337982314495395,0.32173384438889785,0.3086953918700315,0.30865213623149373,0.34097475282418055,0.3268007892031975,0.32821319170392926,0.3388457079846267,0.34714368911574445,0.33509402461396337,0.32167860212173094,0.31712804611534806,0.37647497089654475,0.3246253404893445,0.3096619511377757,0.33452271428334684,0.3314555884138956,0.3200913268633822,0.33976091068111985,0.3058876551261101,0.34884002996751334,0.31476959989886943,0.30936447066228534,0.3179239994796268,0.33789086127099777,0.3451202436466444,0.3236278331843471,0.33035420862488074,0.3103302668000154,0.301867288016822,0.33307191471568043,0.3262809893024266
54,0.31813603944107327,0.3266732736724451,0.32974395212340246,0.2961237959305333,0.30844286533516374,0.31616885610602663,0.32775229101527154,0.30013020421518416,0.3348013711051546,0.34068090514902066,0.3070566552390388,0.31324135400612385,0.3135788238648662,0.3233349040477423,0.30666323745231666,0.3358648219810211,0.3581209469536375,0.3236488692659809,0.3231539512329911,0.31398297814092097,0.31558139181524,0.30403779830436406,0.3334652916465836,0.30252662864903457,0.32875036545749947,0.3227300484238366,0.33156975234025254,0.31064463687706345,0.3206195338029213,0.3347834960354345,0.32511631948032677,0.33274000708958135,0.33567905898654604,0.317408163794692,0.3103748939136338,0.3168510009804701,0.3362982983387669,0.321402107343599,0.336367676398849,0.34581565570733863,0.33729068254697986,0.33073368663892616,0.3409077214904212,0.32247019680743605,0.31263782925848127,0.32577208363708104,0.32180360139126674,0.31330986076242573,0.33389868604967554,0.3285422214442279,0.3314892632595416,0.3351162109828175,0.3272024613039906,0.3109249250098431,0.3129005547557294,0.3360524133205324,0.3082317242354521,0.32590817146436385,0.3192477412412173,0.3058064594307274,0.30974305061551183,0.32609951190661385,0.31869332043170273,0.33423996385156746,0.32507517062239943,0.3040177020557634,0.324364924920269,0.3110602658994116,0.3211467061160986,0.32628309950472245,0.3118983058126691,0.31772788703096116,0.3396367365982107,0.3187405091897816,0.32983480797433906,0.3345167126735414,0.3430063840847026,0.33306922768531305,0.3203788549459518,0.33227289560821116,0.3759756634314699,0.31566867156702483,0.30763149336259576,0.3359429712530545,0.3344028193702663,0.32048682334543843,0.33609290961811344,0.29864464216762987,0.3519314407365535,0.31109882413580947,0.3044230578945969,0.31789337565189435,0.3415323679276113,0.34433605036810044,0.3276316331149348,0.33646231347795674,0.3094905895734269,0.3055603379059571,0.32871800388928835,0.3267979703455546
55,0.31723022152615654,0.32654237216686177,0.33332309722596754,0.29309776900563955,0.3032731823449253,0.31204669820996306,0.33051975360186897,0.28555986637329844,0.3334384452717808,0.3386559500777593,0.31098089213263996,0.3147167194759143,0.3225123644823665,0.32726894217977665,0.3125856599351927,0.3396149705607695,0.3599704255414672,0.32493528281984124,0.32533269223099526,0.31608327140298514,0.32215654004414535,0.30948325472955374,0.3359656164560623,0.2921843259437281,0.32350154422570504,0.32997840473913087,0.33642836766783296,0.30921332355057973,0.31859860249698324,0.3366551945210789,0.32440530651600186,0.32878649208653515,0.3375756234803877,0.31569160911430927,0.31326322431462217,0.32796236563456815,0.3394368759558392,0.32714715215528706,0.3383661415453007,0.3455064582248647,0.33747580982847214,0.33382522615532134,0.35090362050055257,0.32210555353940873,0.3086881426239602,0.3294075444133724,0.31587592221975475,0.3109733070101027,0.33526357331143497,0.3362391450663327,0.33386994634819434,0.32148548200156235,0.3286183921075715,0.30761127026862856,0.31220167052259856,0.34735630294332137,0.3049192044594299,0.32151014194435873,0.3145358213681631,0.3125964833937317,0.31881849904481446,0.3280924006533747,0.31734901625150624,0.33389480588350967,0.33007718831992583,0.31103836188319633,0.3286299103212257,0.32170213590415664,0.31666362341877996,0.32515484272511574,0.310275306860705,0.3125151729313977,0.33319895976794034,0.32318359747938263,0.3328818922380536,0.3376678320344553,0.345012399189346,0.3341806352341151,0.3295818635536679,0.32920245147628185,0.3674342995229366,0.3125886940655084,0.304962733501294,0.3371479698449779,0.352646008393157,0.3188609932225182,0.33649934146843785,0.30259538561363136,0.350429707821008,0.3159950283812306,0.30508856360496284,0.31387877011743254,0.3401595243020295,0.3332349363164286,0.33048190979742553,0.34060550791396904,0.3095690586407093,0.31534278427158774,0.33145002606215324,0.33132020135657575
56,0.30962582089037544,0.3167821709732961,0.3300858672695687,0.2906412975281411,0.30443181955372467,0.30643443054873143,0.32693988132853613,0.2877161125516048,0.32741761352836646,0.3377773729044539,0.31397411509382345,0.3114360846922495,0.31730044926885126,0.331105305715195,0.30564918347868913,0.3356108693698858,0.35455597800041705,0.32431122479431307,0.3255760409676696,0.3129732193409661,0.30891044706201537,0.3124019362088958,0.3397670297988447,0.2932226999997354,0.3265141969484461,0.3382256287797569,0.3394100217569915,0.31455660247034,0.32731616517754386,0.32769716420740064,0.32286381315650803,0.33144793915250026,0.3373240142137878,0.30998752229216636,0.3130637991689686,0.331906738366839,0.3387612335832945,0.32453933518559575,0.34640776382021893,0.34667883968015395,0.3269443077730715,0.3370146272844589,0.34609905345619263,0.32233817845751156,0.30275575828600304,0.3268897837780548,0.3095400228620587,0.3117978112310444,0.32827248980771306,0.3319059991944387,0.32406422263239737,0.3155635912259121,0.3255184974272979,0.30473744435074895,0.30937537182256736,0.3478718503264883,0.30751155686988685,0.3206099185287193,0.31309173003301577,0.3085136675899346,0.32078676259954725,0.32660502692423266,0.3211972080186009,0.33111623044249394,0.3320011927405345,0.32067466391793054,0.33533078956659584,0.3150739132520239,0.3115036513900255,0.32246572775403315,0.30663693907158296,0.31428781939428563,0.338302261245006,0.32992749978968133,0.3298448692532667,0.34343544606008086,0.34475161873963833,0.3241215610530185,0.3294118012566817,0.3338057595793785,0.3614009765313201,0.31337766215870533,0.2974279216840633,0.3371745906513627,0.3457047100377613,0.3225405110559828,0.3364456195844196,0.30787214736656093,0.3532029197601197,0.3151007129339285,0.31074145656702196,0.30989991719213145,0.349163154772942,0.3350144923325572,0.33032659764502037,0.33662042929469194,0.3164850949420769,0.31078002129703763,0.3353508712865587,0.33574426545719815
57,0.3181580994018811,0.3238151848406439,0.3268766732808538,0.2891900653348104,0.3016400376245682,0.30531072856533276,0.3388634944407936,0.2988036876022128,0.3212971145259948,0.33609754706183037,0.31063243001030855,0.30941725324987346,0.3190747508494244,0.31817569054014627,0.3040505491085256,0.3296933105076557,0.34987373933888194,0.32749629149304743,0.3246511245005755,0.3125824033154884,0.3071627946017692,0.3070385713095931,0.34271835998329336,0.28852827409890364,0.3374604378543353,0.3421993535879861,0.3398429825727421,0.3187140208510331,0.3305195845460104,0.325443379633498,0.3242451016783773,0.33711056124594496,0.33508194716440215,0.3100833988455807,0.32609048447352446,0.32744381917875864,0.34356008855703035,0.32726850475045577,0.35016853201683146,0.34597206814897297,0.3278212922024212,0.3372994664407122,0.32921025955495375,0.3241914747265524,0.3004561707606402,0.33587576350023285,0.3252630920351181,0.31139777920748385,0.3250382861697644,0.3362826876814139,0.3201478180684362,0.3177644671625567,0.3310348508596378,0.3014065956910514,0.30997219185177133,0.34421610939275904,0.30447153945711786,0.32009397009886975,0.3048257637785237,0.3140338429491956,0.3195420385754236,0.3299802356761997,0.3047709513781255,0.33491635269664577,0.331314855093483,0.3179905151200229,0.33467876484750175,0.3142595004576143,0.2965552059553107,0.31895515110747996,0.3090076897088059,0.32688032689031743,0.342664359037574,0.33567170354085063,0.3269392722605867,0.3413735022509556,0.3418942519128997,0.32501887796979606,0.324606100033019,0.3313021379682738,0.36149126934075904,0.32078007889342564,0.290456244925963,0.33548077917849783,0.34358173417718696,0.3204439919126003,0.33485043130083625,0.30584674409557205,0.3497566545631948,0.31218844440684257,0.30626221215480426,0.30654485660024455,0.3359511916947221,0.32983564933917875,0.3263549410180566,0.33307212398902186,0.31041111630581397,0.3104902120066425,0.3385121897220104,0.33584322470558337
58,0.31771101827806586,0.32159358903570423,0.3278749342418557,0.29443249016629236,0.30497898609121865,0.3075981035103569,0.3350657722916716,0.29961927586072856,0.32727527244564336,0.3363122165554457,0.3114949274144221,0.30995594991385167,0.3209962893034635,0.3245315661161645,0.2979940827161625,0.33555973993265714,0.35441977385062884,0.3296074556539845,0.320954425962689,0.31173483514698447,0.30682290138463997,0.3147791468295524,0.34899286521784434,0.28385625156452515,0.33909985896314887,0.33914648594730984,0.33840315023414724,0.32802672436314506,0.3317217577807234,0.3298394953549095,0.32530668685638986,0.326859513866124,0.3325096474946093,0.3112390746670394,0.31441161547828467,0.3306141394542707,0.3350446110424822,0.33403962600046927,0.35075056385983255,0.3437947742198707,0.3231680554322156,0.3324035083617645,0.3123832578591131,0.32209452481065715,0.2998346707240771,0.3357829030108343,0.31654589565035796,0.31461801168368714,0.320268558126853,0.3451700895302069,0.31854411076757744,0.31827236169303963,0.3358968204633933,0.3042164146194276,0.3110814556407419,0.3390240479791965,0.3007621420533597,0.32381691893317777,0.29806203108981744,0.31211782746248484,0.3237077200033605,0.33078385497469515,0.31793845077856886,0.33204122662641394,0.3336627289369213,0.32009963427214416,0.3404649388273798,0.31646544253255116,0.2937546187657775,0.31787348240157776,0.31396917955021325,0.33391149107246126,0.3382427300742137,0.3360235105093593,0.32227785106659207,0.33792942242639973,0.3413199668363764,0.3233167107029269,0.33856070190157855,0.3351539432940084,0.35684459169718247,0.3142608042920591,0.30451969267502726,0.32735683923319414,0.34437211654467664,0.3223698667760983,0.329455389028633,0.31576301852769845,0.3480006280087514,0.3079125916508783,0.2989151449939105,0.3009058166269363,0.32479624390948636,0.3285552332846821,0.32303030249393283,0.3418711658827668,0.30263857407105227,0.3045464664541465,0.347075977386737,0.34530821991831157
59,0.32081473632978874,0.31973008096419797,0.32563001398388924,0.2919835527301861,0.30464931756919406,0.3086889106195271,0.33652715770652775,0.29572770812068294,0.3286524054509493,0.3410937718409783,0.32748664353282225,0.3154880457684516,0.321319102104606,0.3205781486611419,0.2963608597022917,0.33537945813027437,0.3263060848304235,0.3227149015660868,0.31325615441402843,0.3131115086802829,0.30464127010956094,0.3137441910704995,0.346909372168518,0.2907122720916322,0.3387241552698321,0.3375948327221384,0.33824102087504315,0.327780760293757,0.3284724178979052,0.3281483502643273,0.3267773264247979,0.33583132895269446,0.3325278147781686,0.31436729790849327,0.32085778983242047,0.3430351715065706,0.3336168228705697,0.3330316719149343,0.34110710530394217,0.33723680068260065,0.32874554995876537,0.33100013518751925,0.31226421299543056,0.3164576993829599,0.30043768863261416,0.3253399040426788,0.31816952632111006,0.3157631078719363,0.308642491783767,0.3409992167057415,0.3198570894395428,0.3215968303206388,0.33376662756153525,0.3016978234714824,0.3223447602923403,0.33747614850371005,0.29714861698699235,0.3216738562138665,0.2997531228286091,0.3143521915740626,0.3252959793475859,0.33174447783377115,0.32090012571913956,0.3385316320313881,0.3261717945703483,0.3186605333659446,0.3429635181976062,0.3183769900560897,0.29515714752708727,0.3201415724512043,0.3086306446629753,0.3362461443640144,0.332492085908462,0.33024952023441606,0.3231738591519481,0.34286521258953573,0.3438654510965621,0.32275581462662684,0.33395640003993576,0.33717815065834533,0.35255033627206483,0.3137537093797042,0.30198680352286716,0.3295795351651559,0.34409036602236653,0.3327489675000223,0.33345129751697106,0.31504325003147693,0.334557680651152,0.30946151101951536,0.30910766575494175,0.30469181487339486,0.3318461415176786,0.3319640885653818,0.3218645878412411,0.34537699901111674,0.3146236558976146,0.31300013371306773,0.34634965486657193,0.3506831468820263
60,0.3192188108607322,0.3163839172115474,0.326849509219172,0.2863649678844736,0.30882436714199624,0.3043134518488603,0.3385247809479713,0.29759429602273224,0.32448128744836546,0.34088071801847014,0.3257480652036052,0.31711757749494923,0.3230671428106734,0.3178272262957469,0.2999239349405495,0.33396617553942143,0.31692651508351877,0.31957112366120893,0.3137264512152848,0.30933387669948653,0.28419740917144926,0.31600991610200835,0.33712799964329426,0.2975088861038862,0.32500510788074616,0.33760631206099745,0.33936286240683056,0.32697482309197434,0.3283256388299199,0.3307552087643657,0.32568550792640466,0.33242318556838435,0.330978331354958,0.3154014388575014,0.31590818122422565,0.3415067175927713,0.33680123901522685,0.33388011593901534,0.3338284836256612,0.33083352618146655,0.3224808081938252,0.3336147323519458,0.32218981051133216,0.31332767469739486,0.3016113474196978,0.3285011649311883,0.31826203888554533,0.3164423807818456,0.30733163241437744,0.33578156517930946,0.3179637226299986,0.32280779917645225,0.32750689520666754,0.30108553736124355,0.3189857266940358,0.3293499582267586,0.30130769795024304,0.3226441213333167,0.2979649441579389,0.31236743735095085,0.3250319695829897,0.33550649394733106,0.3209208275450047,0.34489864090498384,0.3267932863711468,0.31650982354914403,0.34722876774969696,0.31968948487773174,0.29639685025497875,0.313383570040946,0.303722154266263,0.3390883686208273,0.3286255054533059,0.3254090849480031,0.31949254155105933,0.34244121032893116,0.3404045505207001,0.3223424553078039,0.33744446939248796,0.3368156468082163,0.35016872999461307,0.31680680443194353,0.31810577401727635,0.3243783034490023,0.33953393110463664,0.3308286326989497,0.3226521565187689,0.31840233933257667,0.33172212646643284,0.30759142467725825,0.31221357907800307,0.3075905554426611,0.32955942011684086,0.3309952696940596,0.3223900199374923,0.3432207495191564,0.3095615352452198,0.31491486781716393,0.3413513205261992,0.3523535128818688
